# energy grid [eV]     epsr_x  epsr_y  epsr_z
# plasmon frequences [eV]:    20.206130047   20.206130039   20.206130046
    0.000000000    3.979154858    3.979151289    3.979154990
    0.010003334    3.979158025    3.979154456    3.979158157
    0.020006669    3.979167526    3.979163957    3.979167658
    0.030010003    3.979183361    3.979179792    3.979183493
    0.040013338    3.979205531    3.979201962    3.979205663
    0.050016672    3.979234035    3.979230466    3.979234167
    0.060020007    3.979268875    3.979265306    3.979269007
    0.070023341    3.979310051    3.979306482    3.979310183
    0.080026676    3.979357565    3.979353996    3.979357696
    0.090030010    3.979411416    3.979407847    3.979411548
    0.100033344    3.979471606    3.979468037    3.979471738
    0.110036679    3.979538137    3.979534568    3.979538269
    0.120040013    3.979611009    3.979607440    3.979611141
    0.130043348    3.979690224    3.979686655    3.979690356
    0.140046682    3.979775784    3.979772215    3.979775916
    0.150050017    3.979867691    3.979864122    3.979867823
    0.160053351    3.979965946    3.979962377    3.979966078
    0.170056686    3.980070551    3.980066982    3.980070683
    0.180060020    3.980181508    3.980177939    3.980181640
    0.190063354    3.980298821    3.980295252    3.980298953
    0.200066689    3.980422490    3.980418921    3.980422622
    0.210070023    3.980552519    3.980548950    3.980552651
    0.220073358    3.980688910    3.980685341    3.980689042
    0.230076692    3.980831666    3.980828097    3.980831797
    0.240080027    3.980980789    3.980977220    3.980980921
    0.250083361    3.981136284    3.981132715    3.981136416
    0.260086696    3.981298152    3.981294583    3.981298284
    0.270090030    3.981466398    3.981462829    3.981466530
    0.280093364    3.981641025    3.981637456    3.981641157
    0.290096699    3.981822036    3.981818467    3.981822168
    0.300100033    3.982009435    3.982005866    3.982009567
    0.310103368    3.982203225    3.982199656    3.982203357
    0.320106702    3.982403411    3.982399842    3.982403543
    0.330110037    3.982609998    3.982606428    3.982610129
    0.340113371    3.982822988    3.982819418    3.982823119
    0.350116706    3.983042386    3.983038817    3.983042518
    0.360120040    3.983268197    3.983264628    3.983268329
    0.370123374    3.983500425    3.983496856    3.983500557
    0.380126709    3.983739076    3.983735507    3.983739208
    0.390130043    3.983984154    3.983980585    3.983984286
    0.400133378    3.984235663    3.984232094    3.984235795
    0.410136712    3.984493610    3.984490041    3.984493742
    0.420140047    3.984758000    3.984754431    3.984758131
    0.430143381    3.985028837    3.985025268    3.985028969
    0.440146716    3.985306127    3.985302558    3.985306259
    0.450150050    3.985589877    3.985586308    3.985590009
    0.460153384    3.985880091    3.985876522    3.985880223
    0.470156719    3.986176777    3.986173208    3.986176909
    0.480160053    3.986479939    3.986476370    3.986480071
    0.490163388    3.986789585    3.986786016    3.986789717
    0.500166722    3.987105720    3.987102151    3.987105852
    0.510170057    3.987428351    3.987424782    3.987428483
    0.520173391    3.987757485    3.987753916    3.987757617
    0.530176726    3.988093129    3.988089559    3.988093260
    0.540180060    3.988435288    3.988431719    3.988435420
    0.550183394    3.988783972    3.988780403    3.988784104
    0.560186729    3.989139186    3.989135617    3.989139318
    0.570190063    3.989500938    3.989497369    3.989501070
    0.580193398    3.989869236    3.989865667    3.989869368
    0.590196732    3.990244088    3.990240518    3.990244219
    0.600200067    3.990625500    3.990621931    3.990625632
    0.610203401    3.991013481    3.991009912    3.991013613
    0.620206736    3.991408039    3.991404470    3.991408171
    0.630210070    3.991809182    3.991805613    3.991809314
    0.640213404    3.992216919    3.992213350    3.992217051
    0.650216739    3.992631258    3.992627689    3.992631390
    0.660220073    3.993052208    3.993048639    3.993052340
    0.670223408    3.993479777    3.993476208    3.993479909
    0.680226742    3.993913975    3.993910406    3.993914107
    0.690230077    3.994354810    3.994351241    3.994354942
    0.700233411    3.994802293    3.994798723    3.994802425
    0.710236746    3.995256431    3.995252862    3.995256563
    0.720240080    3.995717236    3.995713666    3.995717367
    0.730243414    3.996184715    3.996181146    3.996184847
    0.740246749    3.996658881    3.996655311    3.996659012
    0.750250083    3.997139741    3.997136172    3.997139873
    0.760253418    3.997627307    3.997623738    3.997627439
    0.770256752    3.998121589    3.998118020    3.998121721
    0.780260087    3.998622597    3.998619028    3.998622729
    0.790263421    3.999130342    3.999126773    3.999130474
    0.800266756    3.999644835    3.999641266    3.999644967
    0.810270090    4.000166087    4.000162518    4.000166219
    0.820273424    4.000694108    4.000690539    4.000694240
    0.830276759    4.001228910    4.001225341    4.001229042
    0.840280093    4.001770505    4.001766936    4.001770637
    0.850283428    4.002318904    4.002315334    4.002319036
    0.860286762    4.002874118    4.002870549    4.002874250
    0.870290097    4.003436160    4.003432591    4.003436292
    0.880293431    4.004005042    4.004001473    4.004005174
    0.890296766    4.004580776    4.004577207    4.004580908
    0.900300100    4.005163374    4.005159805    4.005163506
    0.910303434    4.005752849    4.005749280    4.005752981
    0.920306769    4.006349214    4.006345645    4.006349346
    0.930310103    4.006952481    4.006948912    4.006952613
    0.940313438    4.007562664    4.007559095    4.007562796
    0.950316772    4.008179776    4.008176207    4.008179908
    0.960320107    4.008803830    4.008800261    4.008803962
    0.970323441    4.009434840    4.009431270    4.009434972
    0.980326776    4.010072819    4.010069250    4.010072951
    0.990330110    4.010717782    4.010714213    4.010717914
    1.000333444    4.011369743    4.011366174    4.011369875
    1.010336779    4.012028716    4.012025146    4.012028848
    1.020340113    4.012694715    4.012691145    4.012694847
    1.030343448    4.013367755    4.013364185    4.013367887
    1.040346782    4.014047851    4.014044281    4.014047983
    1.050350117    4.014735018    4.014731448    4.014735150
    1.060353451    4.015429271    4.015425701    4.015429403
    1.070356786    4.016130625    4.016127056    4.016130757
    1.080360120    4.016839096    4.016835527    4.016839228
    1.090363454    4.017554701    4.017551131    4.017554832
    1.100366789    4.018277453    4.018273884    4.018277585
    1.110370123    4.019007371    4.019003801    4.019007503
    1.120373458    4.019744470    4.019740900    4.019744601
    1.130376792    4.020488766    4.020485196    4.020488898
    1.140380127    4.021240276    4.021236707    4.021240408
    1.150383461    4.021999018    4.021995449    4.021999150
    1.160386796    4.022765008    4.022761439    4.022765140
    1.170390130    4.023538264    4.023534694    4.023538396
    1.180393464    4.024318803    4.024315233    4.024318934
    1.190396799    4.025106642    4.025103072    4.025106774
    1.200400133    4.025901800    4.025898230    4.025901932
    1.210403468    4.026704295    4.026700725    4.026704426
    1.220406802    4.027514144    4.027510575    4.027514276
    1.230410137    4.028331368    4.028327798    4.028331499
    1.240413471    4.029155983    4.029152413    4.029156115
    1.250416806    4.029988009    4.029984440    4.029988141
    1.260420140    4.030827466    4.030823896    4.030827598
    1.270423474    4.031674372    4.031670803    4.031674504
    1.280426809    4.032528748    4.032525178    4.032528880
    1.290430143    4.033390612    4.033387043    4.033390744
    1.300433478    4.034259986    4.034256416    4.034260117
    1.310436812    4.035136888    4.035133318    4.035137020
    1.320440147    4.036021340    4.036017770    4.036021472
    1.330443481    4.036913362    4.036909792    4.036913494
    1.340446816    4.037812975    4.037809405    4.037813107
    1.350450150    4.038720201    4.038716631    4.038720332
    1.360453484    4.039635059    4.039631490    4.039635191
    1.370456819    4.040557573    4.040554003    4.040557705
    1.380460153    4.041487764    4.041484194    4.041487896
    1.390463488    4.042425654    4.042422084    4.042425786
    1.400466822    4.043371265    4.043367695    4.043371397
    1.410470157    4.044324619    4.044321049    4.044324751
    1.420473491    4.045285740    4.045282170    4.045285872
    1.430476826    4.046254651    4.046251081    4.046254783
    1.440480160    4.047231374    4.047227804    4.047231506
    1.450483494    4.048215933    4.048212363    4.048216065
    1.460486829    4.049208352    4.049204782    4.049208484
    1.470490163    4.050208655    4.050205085    4.050208787
    1.480493498    4.051216866    4.051213296    4.051216998
    1.490496832    4.052233010    4.052229440    4.052233142
    1.500500167    4.053257111    4.053253541    4.053257243
    1.510503501    4.054289194    4.054285624    4.054289326
    1.520506836    4.055329285    4.055325715    4.055329417
    1.530510170    4.056377409    4.056373839    4.056377541
    1.540513505    4.057433592    4.057430022    4.057433724
    1.550516839    4.058497861    4.058494291    4.058497992
    1.560520173    4.059570240    4.059566670    4.059570372
    1.570523508    4.060650758    4.060647188    4.060650890
    1.580526842    4.061739441    4.061735870    4.061739572
    1.590530177    4.062836315    4.062832745    4.062836447
    1.600533511    4.063941410    4.063937840    4.063941541
    1.610536846    4.065054752    4.065051181    4.065054883
    1.620540180    4.066176369    4.066172799    4.066176500
    1.630543515    4.067306290    4.067302720    4.067306421
    1.640546849    4.068444543    4.068440973    4.068444675
    1.650550183    4.069591158    4.069587588    4.069591290
    1.660553518    4.070746163    4.070742593    4.070746295
    1.670556852    4.071909589    4.071906018    4.071909720
    1.680560187    4.073081464    4.073077894    4.073081596
    1.690563521    4.074261820    4.074258249    4.074261951
    1.700566856    4.075450686    4.075447115    4.075450817
    1.710570190    4.076648093    4.076644523    4.076648225
    1.720573525    4.077854073    4.077850503    4.077854205
    1.730576859    4.079068657    4.079065086    4.079068789
    1.740580193    4.080291876    4.080288306    4.080292008
    1.750583528    4.081523764    4.081520193    4.081523895
    1.760586862    4.082764351    4.082760781    4.082764483
    1.770590197    4.084013671    4.084010101    4.084013803
    1.780593531    4.085271757    4.085268187    4.085271889
    1.790596866    4.086538643    4.086535073    4.086538775
    1.800600200    4.087814362    4.087810792    4.087814494
    1.810603535    4.089098948    4.089095378    4.089099080
    1.820606869    4.090392437    4.090388866    4.090392568
    1.830610203    4.091694861    4.091691291    4.091694993
    1.840613538    4.093006258    4.093002688    4.093006390
    1.850616872    4.094326662    4.094323092    4.094326794
    1.860620207    4.095656110    4.095652540    4.095656242
    1.870623541    4.096994638    4.096991067    4.096994769
    1.880626876    4.098342282    4.098338711    4.098342413
    1.890630210    4.099699079    4.099695508    4.099699211
    1.900633545    4.101065068    4.101061497    4.101065199
    1.910636879    4.102440285    4.102436714    4.102440417
    1.920640213    4.103824770    4.103821199    4.103824901
    1.930643548    4.105218560    4.105214990    4.105218692
    1.940646882    4.106621696    4.106618125    4.106621827
    1.950650217    4.108034216    4.108030645    4.108034347
    1.960653551    4.109456160    4.109452589    4.109456291
    1.970656886    4.110887568    4.110883998    4.110887700
    1.980660220    4.112328483    4.112324912    4.112328614
    1.990663555    4.113778943    4.113775373    4.113779075
    2.000666889    4.115238992    4.115235421    4.115239124
    2.010670223    4.116708671    4.116705100    4.116708803
    2.020673558    4.118188023    4.118184452    4.118188155
    2.030676892    4.119677091    4.119673520    4.119677222
    2.040680227    4.121175917    4.121172346    4.121176049
    2.050683561    4.122684547    4.122680976    4.122684678
    2.060686896    4.124203023    4.124199452    4.124203155
    2.070690230    4.125731392    4.125727821    4.125731524
    2.080693565    4.127269698    4.127266127    4.127269830
    2.090696899    4.128817988    4.128814417    4.128818119
    2.100700233    4.130376306    4.130372735    4.130376438
    2.110703568    4.131944701    4.131941130    4.131944833
    2.120706902    4.133523220    4.133519649    4.133523351
    2.130710237    4.135111910    4.135108338    4.135112041
    2.140713571    4.136710819    4.136707248    4.136710950
    2.150716906    4.138319996    4.138316425    4.138320128
    2.160720240    4.139939491    4.139935920    4.139939623
    2.170723575    4.141569354    4.141565783    4.141569486
    2.180726909    4.143209635    4.143206064    4.143209767
    2.190730243    4.144860385    4.144856814    4.144860517
    2.200733578    4.146521655    4.146518084    4.146521787
    2.210736912    4.148193499    4.148189927    4.148193630
    2.220740247    4.149875967    4.149872396    4.149876099
    2.230743581    4.151569114    4.151565543    4.151569246
    2.240746916    4.153272994    4.153269422    4.153273125
    2.250750250    4.154987660    4.154984089    4.154987792
    2.260753585    4.156713169    4.156709597    4.156713300
    2.270756919    4.158449575    4.158446003    4.158449706
    2.280760253    4.160196935    4.160193363    4.160197066
    2.290763588    4.161955305    4.161951734    4.161955437
    2.300766922    4.163724745    4.163721173    4.163724876
    2.310770257    4.165505311    4.165501739    4.165505442
    2.320773591    4.167297062    4.167293490    4.167297193
    2.330776926    4.169100058    4.169096487    4.169100190
    2.340780260    4.170914360    4.170910788    4.170914491
    2.350783595    4.172740028    4.172736456    4.172740159
    2.360786929    4.174577123    4.174573551    4.174577254
    2.370790263    4.176425708    4.176422137    4.176425840
    2.380793598    4.178285847    4.178282275    4.178285978
    2.390796932    4.180157602    4.180154030    4.180157733
    2.400800267    4.182041038    4.182037466    4.182041170
    2.410803601    4.183936221    4.183932649    4.183936352
    2.420806936    4.185843216    4.185839644    4.185843347
    2.430810270    4.187762090    4.187758518    4.187762221
    2.440813605    4.189692911    4.189689339    4.189693042
    2.450816939    4.191635747    4.191632175    4.191635878
    2.460820273    4.193590667    4.193587095    4.193590798
    2.470823608    4.195557740    4.195554169    4.195557872
    2.480826942    4.197537039    4.197533467    4.197537170
    2.490830277    4.199528634    4.199525062    4.199528765
    2.500833611    4.201532598    4.201529026    4.201532729
    2.510836946    4.203549003    4.203545432    4.203549135
    2.520840280    4.205577926    4.205574354    4.205578057
    2.530843615    4.207619439    4.207615867    4.207619571
    2.540846949    4.209673620    4.209670048    4.209673752
    2.550850283    4.211740546    4.211736974    4.211740677
    2.560853618    4.213820293    4.213816721    4.213820425
    2.570856952    4.215912942    4.215909370    4.215913073
    2.580860287    4.218018571    4.218014999    4.218018703
    2.590863621    4.220137262    4.220133690    4.220137394
    2.600866956    4.222269097    4.222265525    4.222269228
    2.610870290    4.224414157    4.224410585    4.224414289
    2.620873625    4.226572528    4.226568955    4.226572659
    2.630876959    4.228744293    4.228740721    4.228744424
    2.640880293    4.230929539    4.230925966    4.230929670
    2.650883628    4.233128352    4.233124780    4.233128483
    2.660886962    4.235340821    4.235337249    4.235340953
    2.670890297    4.237567036    4.237563464    4.237567167
    2.680893631    4.239807086    4.239803513    4.239807217
    2.690896966    4.242061062    4.242057490    4.242061194
    2.700900300    4.244329059    4.244325486    4.244329190
    2.710903635    4.246611168    4.246607596    4.246611300
    2.720906969    4.248907487    4.248903914    4.248907618
    2.730910303    4.251218110    4.251214538    4.251218241
    2.740913638    4.253543136    4.253539564    4.253543267
    2.750916972    4.255882664    4.255879091    4.255882795
    2.760920307    4.258236793    4.258233220    4.258236924
    2.770923641    4.260605625    4.260602053    4.260605756
    2.780926976    4.262989264    4.262985691    4.262989395
    2.790930310    4.265387813    4.265384240    4.265387944
    2.800933645    4.267801378    4.267797805    4.267801509
    2.810936979    4.270230066    4.270226493    4.270230197
    2.820940313    4.272673986    4.272670413    4.272674117
    2.830943648    4.275133248    4.275129675    4.275133379
    2.840946982    4.277607963    4.277604390    4.277608094
    2.850950317    4.280098244    4.280094671    4.280098375
    2.860953651    4.282604206    4.282600633    4.282604337
    2.870956986    4.285125966    4.285122393    4.285126097
    2.880960320    4.287663640    4.287660068    4.287663772
    2.890963655    4.290217350    4.290213777    4.290217481
    2.900966989    4.292787215    4.292783642    4.292787346
    2.910970323    4.295373359    4.295369786    4.295373490
    2.920973658    4.297975906    4.297972333    4.297976037
    2.930976992    4.300594983    4.300591410    4.300595114
    2.940980327    4.303230719    4.303227146    4.303230850
    2.950983661    4.305883242    4.305879669    4.305883374
    2.960986996    4.308552687    4.308549113    4.308552818
    2.970990330    4.311239185    4.311235612    4.311239316
    2.980993665    4.313942874    4.313939301    4.313943005
    2.990996999    4.316663891    4.316660318    4.316664022
    3.001000333    4.319402376    4.319398803    4.319402507
    3.011003668    4.322158472    4.322154898    4.322158603
    3.021007002    4.324932322    4.324928749    4.324932453
    3.031010337    4.327724073    4.327720500    4.327724204
    3.041013671    4.330533875    4.330530301    4.330534006
    3.051017006    4.333361876    4.333358303    4.333362007
    3.061020340    4.336208232    4.336204659    4.336208363
    3.071023675    4.339073098    4.339069524    4.339073229
    3.081027009    4.341956631    4.341953057    4.341956762
    3.091030343    4.344858992    4.344855418    4.344859123
    3.101033678    4.347780344    4.347776771    4.347780475
    3.111037012    4.350720854    4.350717280    4.350720985
    3.121040347    4.353680689    4.353677115    4.353680820
    3.131043681    4.356660020    4.356656446    4.356660151
    3.141047016    4.359659021    4.359655447    4.359659152
    3.151050350    4.362677868    4.362674295    4.362677999
    3.161053685    4.365716742    4.365713168    4.365716873
    3.171057019    4.368775825    4.368772251    4.368775955
    3.181060353    4.371855301    4.371851727    4.371855432
    3.191063688    4.374955360    4.374951786    4.374955491
    3.201067022    4.378076193    4.378072620    4.378076324
    3.211070357    4.381217996    4.381214422    4.381218127
    3.221073691    4.384380967    4.384377393    4.384381098
    3.231077026    4.387565306    4.387561732    4.387565437
    3.241080360    4.390771220    4.390767646    4.390771351
