#        \hbar \omega(eV)           Re(1/eps)            -Im(1/eps)               Re(eps)                Im(eps)
     0.000000000000000E+00  0.122087065673469E+00  0.491571080697631E-10  0.819087586783826E+01  0.329797237733792E-08
     0.500000000000000E-01  0.122076378758941E+00  0.116628836384126E-03  0.819158544366951E+01  0.782604372892530E-02
     0.100000000000000E+00  0.122044315231876E+00  0.233288332389191E-03  0.819371508014638E+01  0.156623282574678E-01
     0.150000000000000E+00  0.121990866738505E+00  0.350009287124922E-03  0.819726750714546E+01  0.235191357620108E-01
     0.200000000000000E+00  0.121916019343735E+00  0.466822533070457E-03  0.820224728443363E+01  0.314068149107950E-01
     0.250000000000000E+00  0.121819753512916E+00  0.583759026893762E-03  0.820866081668928E+01  0.393358196209406E-01
     0.300000000000000E+00  0.121702044086190E+00  0.700849891596145E-03  0.821651637466393E+01  0.473167452011152E-01
     0.350000000000000E+00  0.121562860245358E+00  0.818126459305276E-03  0.822582412261426E+01  0.553603654168650E-01
     0.400000000000000E+00  0.121402165473134E+00  0.935620314887876E-03  0.823659615217498E+01  0.634776707274436E-01
     0.450000000000000E+00  0.121219917504631E+00  0.105336334055943E-02  0.824884652288687E+01  0.716799079555406E-01
     0.500000000000000E+00  0.121016068270879E+00  0.117138776167590E-02  0.826259130963686E+01  0.799786216667833E-01
     0.550000000000000E+00  0.120790563834201E+00  0.128972619390138E-02  0.827784865731030E+01  0.883856975544765E-01
     0.600000000000000E+00  0.120543344315138E+00  0.140841169195649E-02  0.829463884301152E+01  0.969134081473026E-01
     0.650000000000000E+00  0.120274343810693E+00  0.152747780016451E-02  0.831298434625413E+01  0.105574461183545E+00
     0.700000000000000E+00  0.119983490303527E+00  0.164695860502676E-02  0.833290992758702E+01  0.114382051025806E+00
     0.750000000000000E+00  0.119670705561783E+00  0.176688879007489E-02  0.835444271617811E+01  0.123349913525136E+00
     0.800000000000000E+00  0.119335905029095E+00  0.188730369326668E-02  0.837761230695089E+01  0.132492384784026E+00
     0.850000000000000E+00  0.118978997704362E+00  0.200823936721282E-02  0.840245086793903E+01  0.141824464314243E+00
     0.900000000000000E+00  0.118599886010771E+00  0.212973264254652E-02  0.842899325860946E+01  0.151361883139034E+00
     0.950000000000000E+00  0.118198465653517E+00  0.225182119477463E-02  0.845727715999287E+01  0.161121177450654E+00
     0.100000000000000E+01  0.117774625465592E+00  0.237454361497987E-02  0.848734321756204E+01  0.171119768504741E+00
     0.105000000000000E+01  0.117328247241016E+00  0.249793948477840E-02  0.851923519790637E+01  0.181376049513888E+00
     0.110000000000000E+01  0.116859205554705E+00  0.262204945597606E-02  0.855300016038050E+01  0.191909480395966E+00
     0.115000000000000E+01  0.116367367568194E+00  0.274691533541085E-02  0.858868864503746E+01  0.202740691339406E+00
     0.120000000000000E+01  0.115852592820313E+00  0.287258017551941E-02  0.862635487831411E+01  0.213891596270736E+00
     0.125000000000000E+01  0.115314733001796E+00  0.299908837122131E-02  0.866605699811144E+01  0.225385517451375E+00
     0.130000000000000E+01  0.114753631712773E+00  0.312648576377956E-02  0.870785730010315E+01  0.237247322594028E+00
     0.135000000000000E+01  0.114169124201891E+00  0.325481975236769E-02  0.875182250733028E+01  0.249503576078084E+00
     0.140000000000000E+01  0.113561037085788E+00  0.338413941415648E-02  0.879802406538379E+01  0.262182706062031E+00
     0.145000000000000E+01  0.112929188047439E+00  0.351449563382645E-02  0.884653846575741E+01  0.275315189544456E+00
     0.150000000000000E+01  0.112273385511747E+00  0.364594124351919E-02  0.889744760027360E+01  0.288933757720296E+00
     0.155000000000000E+01  0.111593428296642E+00  0.377853117436109E-02  0.895083914983938E+01  0.303073624321815E+00
     0.160000000000000E+01  0.110889105237695E+00  0.391232262083231E-02  0.900680701120278E+01  0.317772740034889E+00
     0.165000000000000E+01  0.110160194784103E+00  0.404737521941145E-02  0.906545176584244E+01  0.333072076549516E+00
     0.170000000000000E+01  0.109406464563615E+00  0.418375124310857E-02  0.912688119565678E+01  0.349015944353367E+00
     0.175000000000000E+01  0.108627670913768E+00  0.432151581370721E-02  0.919121085072283E+01  0.365652349022993E+00
     0.180000000000000E+01  0.107823558376481E+00  0.446073713377641E-02  0.925856467508948E+01  0.383033391528756E+00
     0.185000000000000E+01  0.106993859152722E+00  0.460148674078995E-02  0.932907569736514E+01  0.401215718969226E+00
     0.190000000000000E+01  0.106138292513591E+00  0.474383978601124E-02  0.940288679377729E+01  0.420261033217288E+00
     0.195000000000000E+01  0.105256564163798E+00  0.488787534117163E-02  0.948015153242170E+01  0.440236666226200E+00
     0.200000000000000E+01  0.104348365552978E+00  0.503367673640231E-02  0.956103510864024E+01  0.461216232254772E+00
     0.205000000000000E+01  0.103413373129802E+00  0.518133193338096E-02  0.964571538285386E+01  0.483280369075226E+00
     0.210000000000000E+01  0.102451247533210E+00  0.533093393824116E-02  0.973438403379547E+01  0.506517582392657E+00
     0.215000000000000E+01  0.101461632714457E+00  0.548258125947906E-02  0.982724784194781E+01  0.531025210309297E+00
     0.220000000000000E+01  0.100444154982811E+00  0.563637841689837E-02  0.992453012015968E+01  0.556910527812181E+00
     0.225000000000000E+01  0.993984219669561E-01  0.579243650858475E-02  0.100264723109139E+02  0.584292015072021E+00
     0.230000000000000E+01  0.983240214830303E-01  0.595087384402393E-02  0.101333357726398E+02  0.613300817974799E+00
     0.235000000000000E+01  0.972205202991848E-01  0.611181665280863E-02  0.102454037808372E+02  0.644082434960946E+00
     0.240000000000000E+01  0.960874627851480E-01  0.627539987996256E-02  0.103629837737172E+02  0.676798671175764E+00
     0.245000000000000E+01  0.949243694337764E-01  0.644176808080037E-02  0.104864098766372E+02  0.711629909457950E+00
     0.250000000000000E+01  0.937307352398897E-01  0.661107643050456E-02  0.106160457449124E+02  0.748777758221188E+00
     0.255000000000000E+01  0.925060279195731E-01  0.678349186632321E-02  0.107522877707689E+02  0.788468149349053E+00
     0.260000000000000E+01  0.912496859509344E-01  0.695919438357611E-02  0.108955687073386E+02  0.830954975502599E+00
     0.265000000000000E+01  0.899611164145615E-01  0.713837851063665E-02  0.110463617708616E+02  0.876524376625826E+00
     0.270000000000000E+01  0.886396926088773E-01  0.732125499290020E-02  0.112051852917610E+02  0.925499811079680E+00
     0.275000000000000E+01  0.872847514120533E-01  0.750805272166704E-02  0.113726079960969E+02  0.978248079260226E+00
     0.280000000000000E+01  0.858955903580546E-01  0.769902095113243E-02  0.115492550111761E+02  0.103518650876445E+01
     0.285000000000000E+01  0.844714643896299E-01  0.789443185563508E-02  0.117358147027603E+02  0.109679156281651E+01
     0.290000000000000E+01  0.830115822457017E-01  0.809458349041737E-02  0.119330464661893E+02  0.116360920130035E+01
     0.295000000000000E+01  0.815151024343064E-01  0.829980323297707E-02  0.121417896093789E+02  0.123626741112502E+01
     0.300000000000000E+01  0.799811287351729E-01  0.851045179940226E-02  0.123629734810798E+02  0.131549143619110E+01
     0.305000000000000E+01  0.784087051679233E-01  0.872692795186992E-02  0.125976290112849E+02  0.140212238565120E+01
     0.310000000000000E+01  0.767968103528320E-01  0.894967404107344E-02  0.128469018391374E+02  0.149714009435688E+01
     0.315000000000000E+01  0.751443511810447E-01  0.917918256246141E-02  0.131120672018765E+02  0.160169136768922E+01
     0.320000000000000E+01  0.734501557004010E-01  0.941600395015292E-02  0.133945467374069E+02  0.171712508690084E+01
     0.325000000000000E+01  0.717129651117925E-01  0.966075589036349E-02  0.136959272982673E+02  0.184503611187273E+01
     0.330000000000000E+01  0.699314247602724E-01  0.991413451136162E-02  0.140179817616684E+02  0.198732053921981E+01
     0.335000000000000E+01  0.681040739961987E-01  0.101769279051121E-01  0.143626916084532E+02  0.214624571550220E+01
     0.340000000000000E+01  0.662293347772258E-01  0.104500325646994E-01  0.147322706661974E+02  0.232453955232338E+01
     0.345000000000000E+01  0.643054988861643E-01  0.107344734921262E-01  0.151291887565900E+02  0.252550525970543E+01
     0.350000000000000E+01  0.623307136601704E-01  0.110314289579902E-01  0.155561928679224E+02  0.275316976819628E+01
     0.355000000000000E+01  0.603029661754927E-01  0.113422611983425E-01  0.160163215757510E+02  0.301247706821168E+01
     0.360000000000000E+01  0.582200659302291E-01  0.116685547430211E-01  0.165129052262671E+02  0.330954174510772E+01
     0.365000000000000E+01  0.560796262498716E-01  0.120121646228011E-01  0.170495389703554E+02  0.365198348402404E+01
     0.370000000000000E+01  0.538790449656736E-01  0.123752774527082E-01  0.176300065363379E+02  0.404937063229761E+01
     0.375000000000000E+01  0.516154854836401E-01  0.127604894060800E-01  0.182581169794624E+02  0.451381026659614E+01
     0.379999999999999E+01  0.492858603411038E-01  0.131709064678356E-01  0.189373899407878E+02  0.506073323928632E+01
     0.384999999999999E+01  0.468868210270738E-01  0.136102741892064E-01  0.196704793175532E+02  0.570993321962313E+01
     0.390000000000000E+01  0.444147607157215E-01  0.140831465523680E-01  0.204581475118058E+02  0.648692202672929E+01
     0.394999999999999E+01  0.418658414734956E-01  0.145951064985648E-01  0.212974715161821E+02  0.742464152131314E+01
     0.399999999999999E+01  0.392360658778834E-01  0.151530539002735E-01  0.221787478246334E+02  0.856548060331104E+01
     0.404999999999999E+01  0.365214271897756E-01  0.157655792204505E-01  0.230802342691986E+02  0.996328155268461E+01
     0.409999999999999E+01  0.337181959370061E-01  0.164434398522346E-01  0.239594352610834E+02  0.116843597844077E+02
     0.414999999999999E+01  0.308234390308334E-01  0.172001438202366E-01  0.247393154759630E+02  0.138050716461298E+02
     0.419999999999999E+01  0.278359248003918E-01  0.180526053353102E-01  0.252884826962752E+02  0.164004968729565E+02
     0.424999999999999E+01  0.247576386920672E-01  0.190217338622954E-01  0.253985186825655E+02  0.195141333503304E+02
     0.429999999999999E+01  0.215961780292527E-01  0.201325928722186E-01  0.247743221920025E+02  0.230953524138000E+02
     0.434999999999999E+01  0.183681666736724E-01  0.214133541050296E-01  0.230778685186990E+02  0.269038592342769E+02
     0.439999999999999E+01  0.151032023674958E-01  0.228917605001731E-01  0.200803228162609E+02  0.304355281410575E+02
     0.444999999999999E+01  0.118463347692503E-01  0.245878209203979E-01  0.159033280680145E+02  0.330083684271420E+02
     0.449999999999999E+01  0.865519424195549E-02  0.265034454267390E-01  0.111343022282767E+02  0.340948294425888E+02
     0.454999999999999E+01  0.558865313293300E-02  0.286142919041782E-01  0.657480292536328E+01  0.336634472821639E+02
     0.459999999999999E+01  0.269056060021244E-02  0.308716907220966E-01  0.280179055213226E+01  0.321479513922451E+02
     0.464999999999999E+01  -.208724510557534E-04  0.332156453012933E-01  -.189185519333040E-01  0.301062826283407E+02
     0.469999999999999E+01  -.255280727117935E-02  0.355897665409694E-01  -.200511382400032E+01  0.279541404045257E+02
     0.474999999999999E+01  -.493029712744297E-02  0.379530609915309E-01  -.336598177539019E+01  0.259110776319521E+02
     0.479999999999999E+01  -.718021210633113E-02  0.402840062594725E-01  -.428834101392825E+01  0.240593945818836E+02
     0.484999999999999E+01  -.932179134684419E-02  0.425648720428935E-01  -.490965791130610E+01  0.224183263702713E+02
     0.489999999999999E+01  -.113858538790970E-01  0.447758616399767E-01  -.533416324389450E+01  0.209770613526100E+02
     0.494999999999999E+01  -.134134467420766E-01  0.469263967073675E-01  -.563115275054581E+01  0.197003583771629E+02
     0.499999999999999E+01  -.154064606159199E-01  0.490491165548166E-01  -.582877085756445E+01  0.185568942985239E+02
