#        \hbar \omega(eV)           Re(1/eps)            -Im(1/eps)               Re(eps)                Im(eps)
     0.000000000000000E+00  0.230065672081856E+00  -.159913086099254E-10  0.434658500310383E+01  -.302120614322577E-09
     0.500000000000000E-01  0.230063063573504E+00  0.284150490343671E-04  0.434663421938581E+01  0.536852037697243E-03
     0.100000000000000E+00  0.230055237840744E+00  0.568323837895936E-04  0.434678187881332E+01  0.107382026292912E-02
     0.150000000000000E+00  0.230042194260373E+00  0.852542588991211E-04  0.434702801313835E+01  0.161102032983724E-02
     0.200000000000000E+00  0.230023931793445E+00  0.113682946778460E-03  0.434737267530228E+01  0.214856833642996E-02
     0.250000000000000E+00  0.230000448984874E+00  0.142120722531722E-03  0.434781593946797E+01  0.268658059355685E-02
     0.300000000000000E+00  0.229971743962849E+00  0.170569864852419E-03  0.434835790106504E+01  0.322517369627127E-02
     0.350000000000000E+00  0.229937814438107E+00  0.199032656928227E-03  0.434899867684783E+01  0.376446459554985E-02
     0.400000000000000E+00  0.229898657703039E+00  0.227511387350703E-03  0.434973840496650E+01  0.430457067045972E-02
     0.450000000000000E+00  0.229854270630616E+00  0.256008351030982E-03  0.435057724505132E+01  0.484560980086548E-02
     0.500000000000000E+00  0.229804649673160E+00  0.284525850122483E-03  0.435151537831024E+01  0.538770044076871E-02
     0.550000000000000E+00  0.229749790860947E+00  0.313066194951658E-03  0.435255300763964E+01  0.593096169237366E-02
     0.600000000000000E+00  0.229689689800627E+00  0.341631704957860E-03  0.435369035774889E+01  0.647551338097669E-02
     0.650000000000000E+00  0.229624341673497E+00  0.370224709643388E-03  0.435492767529819E+01  0.702147613077435E-02
     0.700000000000000E+00  0.229553741233569E+00  0.398847549534845E-03  0.435626522905065E+01  0.756897144169316E-02
     0.750000000000000E+00  0.229477882805492E+00  0.427502577156896E-03  0.435770331003808E+01  0.811812176734023E-02
     0.800000000000000E+00  0.229396760282275E+00  0.456192158019617E-03  0.435924223174119E+01  0.866905059418105E-02
     0.850000000000000E+00  0.229310367122838E+00  0.484918671620598E-03  0.436088233028424E+01  0.922188252205089E-02
     0.900000000000000E+00  0.229218696349383E+00  0.513684512463024E-03  0.436262396464438E+01  0.977674334611005E-02
     0.950000000000000E+00  0.229121740544571E+00  0.542492091090985E-03  0.436446751687592E+01  0.103337601403570E-01
     0.100000000000000E+01  0.229019491848513E+00  0.571343835143320E-03  0.436641339235007E+01  0.108930613428162E-01
     0.105000000000000E+01  0.228911941955568E+00  0.600242190427301E-03  0.436846202001011E+01  0.114547768425218E-01
     0.110000000000000E+01  0.228799082110946E+00  0.629189622013559E-03  0.437061385264246E+01  0.120190380684214E-01
     0.115000000000000E+01  0.228680903107108E+00  0.658188615353682E-03  0.437286936716419E+01  0.125859780803309E-01
     0.120000000000000E+01  0.228557395279961E+00  0.687241677421947E-03  0.437522906492704E+01  0.131557316620738E-01
     0.125000000000000E+01  0.228428548504846E+00  0.716351337882737E-03  0.437769347203862E+01  0.137284354169456E-01
     0.130000000000000E+01  0.228294352192310E+00  0.745520150285226E-03  0.438026313970100E+01  0.143042278656455E-01
     0.135000000000000E+01  0.228154795283659E+00  0.774750693287016E-03  0.438293864456733E+01  0.148832495468317E-01
     0.140000000000000E+01  0.228009866246286E+00  0.804045571908453E-03  0.438572058911691E+01  0.154656431204525E-01
     0.145000000000000E+01  0.227859553068777E+00  0.833407418819377E-03  0.438860960204909E+01  0.160515534740195E-01
     0.150000000000000E+01  0.227703843255765E+00  0.862838895660298E-03  0.439160633869680E+01  0.166411278319958E-01
     0.155000000000000E+01  0.227542723822555E+00  0.892342694399843E-03  0.439471148146003E+01  0.172345158684755E-01
     0.160000000000000E+01  0.227376181289499E+00  0.921921538730646E-03  0.439792574026010E+01  0.178318698233453E-01
     0.165000000000000E+01  0.227204201676102E+00  0.951578185505745E-03  0.440124985301517E+01  0.184333446221216E-01
     0.170000000000000E+01  0.227026770494881E+00  0.981315426217836E-03  0.440468458613773E+01  0.190390979996711E-01
     0.175000000000000E+01  0.226843872744948E+00  0.101113608852366E-02  0.440823073505477E+01  0.196492906280288E-01
     0.180000000000000E+01  0.226655492905305E+00  0.104104303781614E-02  0.441188912475145E+01  0.202640862485435E-01
     0.185000000000000E+01  0.226461614927855E+00  0.107103917884671E-02  0.441566061033913E+01  0.208836518085859E-01
     0.190000000000000E+01  0.226262222230119E+00  0.110112745740080E-02  0.441954607764828E+01  0.215081576030712E-01
     0.195000000000000E+01  0.226057297687645E+00  0.113131086202915E-02  0.442354644384743E+01  0.221377774210585E-01
     0.200000000000000E+01  0.225846823626096E+00  0.116159242583824E-02  0.442766265808907E+01  0.227726886977072E-01
     0.205000000000000E+01  0.225630781813005E+00  0.119197522834276E-02  0.443189570218348E+01  0.234130726718821E-01
     0.210000000000000E+01  0.225409153449201E+00  0.122246239738387E-02  0.443624659130139E+01  0.240591145497138E-01
     0.215000000000000E+01  0.225181919159873E+00  0.125305711111645E-02  0.444071637470667E+01  0.247110036744417E-01
     0.220000000000000E+01  0.224949058985283E+00  0.128376260006942E-02  0.444530613652015E+01  0.253689337028834E-01
     0.225000000000000E+01  0.224710552371077E+00  0.131458214928295E-02  0.445001699651597E+01  0.260331027888949E-01
     0.230000000000000E+01  0.224466378158230E+00  0.134551910052687E-02  0.445485011095145E+01  0.267037137742032E-01
     0.235000000000000E+01  0.224216514572567E+00  0.137657685460473E-02  0.445980667343203E+01  0.273809743870195E-01
     0.240000000000000E+01  0.223960939213871E+00  0.140775887374813E-02  0.446488791581248E+01  0.280650974488615E-01
     0.245000000000000E+01  0.223699629044537E+00  0.143906868410666E-02  0.447009510913649E+01  0.287563010900476E-01
     0.250000000000000E+01  0.223432560377797E+00  0.147050987833827E-02  0.447542956461509E+01  0.294548089743308E-01
     0.255000000000000E+01  0.223159708865437E+00  0.150208611830629E-02  0.448089263464696E+01  0.301608505332054E-01
     0.260000000000000E+01  0.222881049485042E+00  0.153380113788856E-02  0.448648571388125E+01  0.308746612104123E-01
     0.265000000000000E+01  0.222596556526721E+00  0.156565874590547E-02  0.449221024032534E+01  0.315964827172302E-01
     0.270000000000000E+01  0.222306203579288E+00  0.159766282917338E-02  0.449806769649943E+01  0.323265632991637E-01
     0.275000000000000E+01  0.222009963515898E+00  0.162981735569077E-02  0.450405961063993E+01  0.330651580146812E-01
     0.280000000000000E+01  0.221707808479079E+00  0.166212637796480E-02  0.451018755795403E+01  0.338125290266961E-01
     0.285000000000000E+01  0.221399709865176E+00  0.169459403648638E-02  0.451645316192755E+01  0.345689459075316E-01
     0.290000000000000E+01  0.221085638308147E+00  0.172722456336243E-02  0.452285809568856E+01  0.353346859581520E-01
     0.295000000000000E+01  0.220765563662685E+00  0.176002228611484E-02  0.452940408342982E+01  0.361100345425090E-01
     0.300000000000000E+01  0.220439454986675E+00  0.179299163165565E-02  0.453609290189183E+01  0.368952854378826E-01
     0.305000000000000E+01  0.220107280522888E+00  0.182613713044951E-02  0.454292638191056E+01  0.376907412021877E-01
     0.310000000000000E+01  0.219769007679933E+00  0.185946342087429E-02  0.454990641003207E+01  0.384967135592549E-01
     0.315000000000000E+01  0.219424603012412E+00  0.189297525379231E-02  0.455703493019759E+01  0.393135238031773E-01
     0.320000000000000E+01  0.219074032200236E+00  0.192667749734485E-02  0.456431394550263E+01  0.401415032228897E-01
     0.325000000000000E+01  0.218717260027055E+00  0.196057514198408E-02  0.457174552003380E+01  0.409809935482303E-01
     0.330000000000000E+01  0.218354250357793E+00  0.199467330575697E-02  0.457933178078665E+01  0.418323474188039E-01
     0.335000000000000E+01  0.217984966115188E+00  0.202897723985751E-02  0.458707491966991E+01  0.426959288771016E-01
     0.340000000000000E+01  0.217609369255344E+00  0.206349233446393E-02  0.459497719559905E+01  0.435721138873822E-01
     0.345000000000000E+01  0.217227420742200E+00  0.209822412487971E-02  0.460304093668503E+01  0.444612908819809E-01
     0.350000000000000E+01  0.216839080520892E+00  0.213317829799775E-02  0.461126854252247E+01  0.453638613367987E-01
     0.355000000000000E+01  0.216444307489926E+00  0.216836069910935E-02  0.461966248658288E+01  0.462802403778734E-01
     0.360000000000000E+01  0.216043059472120E+00  0.220377733908046E-02  0.462822531871843E+01  0.472108574210705E-01
     0.365000000000000E+01  0.215635293184222E+00  0.223943440192024E-02  0.463695966778250E+01  0.481561568470953E-01
     0.370000000000000E+01  0.215220964205179E+00  0.227533825276826E-02  0.464586824437263E+01  0.491165987141693E-01
     0.375000000000000E+01  0.214800026942915E+00  0.231149544632906E-02  0.465495384370400E+01  0.500926595109474E-01
     0.379999999999999E+01  0.214372434599611E+00  0.234791273578513E-02  0.466421934861919E+01  0.510848329523907E-01
     0.384999999999999E+01  0.213938139135340E+00  0.238459708222170E-02  0.467366773274308E+01  0.520936308215830E-01
     0.390000000000000E+01  0.213497091230002E+00  0.242155566459958E-02  0.468330206379080E+01  0.531195838606807E-01
     0.394999999999999E+01  0.213049240243441E+00  0.245879589031532E-02  0.469312550703728E+01  0.541632427144621E-01
     0.399999999999999E+01  0.212594534173651E+00  0.249632540639111E-02  0.470314132895843E+01  0.552251789302216E-01
     0.404999999999999E+01  0.212132919612959E+00  0.253415211134051E-02  0.471335290105332E+01  0.563059860180583E-01
     0.409999999999999E+01  0.211664341702037E+00  0.257228416776023E-02  0.472376370385925E+01  0.574062805759815E-01
     0.414999999999999E+01  0.211188744081659E+00  0.261073001570208E-02  0.473437733117012E+01  0.585267034845669E-01
     0.419999999999999E+01  0.210706068842020E+00  0.264949838688455E-02  0.474519749447151E+01  0.596679211763815E-01
     0.424999999999999E+01  0.210216256469502E+00  0.268859831980820E-02  0.475622802760522E+01  0.608306269857833E-01
     0.429999999999999E+01  0.209719245790692E+00  0.272803917584526E-02  0.476747289167818E+01  0.620155425852464E-01
     0.434999999999999E+01  0.209214973913503E+00  0.276783065638009E-02  0.477893618023071E+01  0.632234195148724E-01
     0.439999999999999E+01  0.208703376165219E+00  0.280798282108391E-02  0.479062212468076E+01  0.644550408123677E-01
     0.444999999999999E+01  0.208184386027220E+00  0.284850610741581E-02  0.480253510006242E+01  0.657112227514410E-01
     0.449999999999999E+01  0.207657935066224E+00  0.288941135144975E-02  0.481467963107753E+01  0.669928166972901E-01
     0.454999999999999E+01  0.207123952861767E+00  0.293070981013771E-02  0.482706039848146E+01  0.683007110886798E-01
     0.459999999999999E+01  0.206582366929687E+00  0.297241318512924E-02  0.483968224582531E+01  0.696358335570011E-01
     0.464999999999999E+01  0.206033102641353E+00  0.301453364827986E-02  0.485255018657875E+01  0.709991531937077E-01
     0.469999999999999E+01  0.205476083138295E+00  0.305708386899386E-02  0.486566941166004E+01  0.723916829786529E-01
     0.474999999999999E+01  0.204911229241964E+00  0.310007704356171E-02  0.487904529740109E+01  0.738144823830536E-01
     0.479999999999999E+01  0.204338459358237E+00  0.314352692666897E-02  0.489268341397888E+01  0.752686601622322E-01
     0.484999999999999E+01  0.203757689376305E+00  0.318744786527165E-02  0.490658953434599E+01  0.767553773547749E-01
     0.489999999999999E+01  0.203168832561531E+00  0.323185483505388E-02  0.492076964369667E+01  0.782758505065043E-01
     0.494999999999999E+01  0.202571799441790E+00  0.327676347970676E-02  0.493522994950845E+01  0.798313551395948E-01
     0.499999999999999E+01  0.201966497686880E+00  0.332219015329310E-02  0.494997689220059E+01  0.814232294892412E-01
