#        \hbar \omega(eV)           Re(1/eps)            -Im(1/eps)               Re(eps)                Im(eps)
     0.000000000000000E+00  0.702693348366467E+00  -.137590990389709E-10  0.142309586724376E+01  -.278649527918194E-10
     0.500000000000000E-01  0.702691495156853E+00  0.202071436917192E-04  0.142309961920036E+01  0.409237605563926E-04
     0.100000000000000E+00  0.702685935200315E+00  0.404178922007328E-04  0.142311087585164E+01  0.818561167777820E-04
     0.150000000000000E+00  0.702676667513533E+00  0.606358252491173E-04  0.142312963954267E+01  0.122805614758066E-03
     0.200000000000000E+00  0.702663690456908E+00  0.808645411672354E-04  0.142315591418376E+01  0.163780840781846E-03
     0.250000000000000E+00  0.702647001733470E+00  0.101107645568514E-03  0.142318970525323E+01  0.204790399646627E-03
     0.300000000000000E+00  0.702626598387332E+00  0.121368753794486E-03  0.142323101980134E+01  0.245842920879181E-03
     0.350000000000000E+00  0.702602476801712E+00  0.141651493374776E-03  0.142327986645532E+01  0.286947064990987E-03
     0.400000000000000E+00  0.702574632696501E+00  0.161959506505829E-03  0.142333625542555E+01  0.328111529782712E-03
     0.450000000000000E+00  0.702543061125387E+00  0.182296452552252E-03  0.142340019851286E+01  0.369345056707853E-03
     0.500000000000000E+00  0.702507756472517E+00  0.202666010574700E-03  0.142347170911702E+01  0.410656437305803E-03
     0.550000000000000E+00  0.702468712448705E+00  0.223071881888296E-03  0.142355080224640E+01  0.452054519714834E-03
     0.600000000000000E+00  0.702425922087168E+00  0.243517792655670E-03  0.142363749452876E+01  0.493548215275675E-03
     0.650000000000000E+00  0.702379377738802E+00  0.264007496518811E-03  0.142373180422331E+01  0.535146505236640E-03
     0.700000000000000E+00  0.702329071066964E+00  0.284544777274005E-03  0.142383375123397E+01  0.576858447571581E-03
     0.750000000000000E+00  0.702274993041771E+00  0.305133451594294E-03  0.142394335712383E+01  0.618693183922208E-03
     0.800000000000000E+00  0.702217133933911E+00  0.325777371803979E-03  0.142406064513096E+01  0.660659946676699E-03
     0.850000000000000E+00  0.702155483307938E+00  0.346480428709886E-03  0.142418564018542E+01  0.702768066196956E-03
     0.900000000000000E+00  0.702090030015046E+00  0.367246554494247E-03  0.142431836892767E+01  0.745026978207258E-03
     0.950000000000000E+00  0.702020762185335E+00  0.388079725674236E-03  0.142445885972825E+01  0.787446231357519E-03
     0.100000000000000E+01  0.701947667219514E+00  0.408983966133397E-03  0.142460714270893E+01  0.830035494974955E-03
     0.105000000000000E+01  0.701870731780062E+00  0.429963350230415E-03  0.142476324976518E+01  0.872804567018435E-03
     0.110000000000000E+01  0.701789941781818E+00  0.451022005990900E-03  0.142492721459017E+01  0.915763382250477E-03
     0.115000000000000E+01  0.701705282381989E+00  0.472164118388123E-03  0.142509907270024E+01  0.958922020642480E-03
     0.120000000000000E+01  0.701616737969556E+00  0.493393932718894E-03  0.142527886146187E+01  0.100229071602949E-02
     0.125000000000000E+01  0.701524292154063E+00  0.514715758081070E-03  0.142546662012032E+01  0.104587986503162E-02
     0.130000000000000E+01  0.701427927753770E+00  0.536133970959502E-03  0.142566238982978E+01  0.108970003625999E-02
     0.135000000000000E+01  0.701327626783155E+00  0.557653018927562E-03  0.142586621368532E+01  0.113376197982613E-02
     0.140000000000000E+01  0.701223370439724E+00  0.579277424471764E-03  0.142607813675651E+01  0.117807663717450E-02
     0.145000000000000E+01  0.701115139090146E+00  0.601011788947362E-03  0.142629820612284E+01  0.122265515125909E-02
     0.150000000000000E+01  0.701002912255634E+00  0.622860796673281E-03  0.142652647091107E+01  0.126750887708605E-02
     0.155000000000000E+01  0.700886668596602E+00  0.644829219175144E-03  0.142676298233441E+01  0.131264939264556E-02
     0.160000000000000E+01  0.700766385896532E+00  0.666921919585672E-03  0.142700779373378E+01  0.135808851025735E-02
     0.165000000000000E+01  0.700642041045041E+00  0.689143857212268E-03  0.142726096062109E+01  0.140383828835597E-02
     0.170000000000000E+01  0.700513610020107E+00  0.711500092282159E-03  0.142752254072473E+01  0.144991104374311E-02
     0.175000000000000E+01  0.700381067869435E+00  0.733995790876070E-03  0.142779259403726E+01  0.149631936433601E-02
     0.180000000000000E+01  0.700244388690909E+00  0.756636230062103E-03  0.142807118286542E+01  0.154307612244298E-02
     0.185000000000000E+01  0.700103545612114E+00  0.779426803242139E-03  0.142835837188266E+01  0.159019448859849E-02
     0.190000000000000E+01  0.699958510768878E+00  0.802373025723924E-03  0.142865422818405E+01  0.163768794599287E-02
     0.195000000000000E+01  0.699809255282791E+00  0.825480540532782E-03  0.142895882134399E+01  0.168557030553341E-02
     0.200000000000000E+01  0.699655749237663E+00  0.848755124477763E-03  0.142927222347656E+01  0.173385572157627E-02
     0.205000000000000E+01  0.699497961654876E+00  0.872202694488078E-03  0.142959450929877E+01  0.178255870837112E-02
     0.210000000000000E+01  0.699335860467570E+00  0.895829314236590E-03  0.142992575619687E+01  0.183169415726320E-02
     0.215000000000000E+01  0.699169412493626E+00  0.919641201068361E-03  0.143026604429574E+01  0.188127735470038E-02
     0.220000000000000E+01  0.698998583407378E+00  0.943644733253408E-03  0.143061545653159E+01  0.193132400109625E-02
     0.225000000000000E+01  0.698823337710001E+00  0.967846457584085E-03  0.143097407872812E+01  0.198185023060348E-02
     0.230000000000000E+01  0.698643638698510E+00  0.992253097339027E-03  0.143134199967628E+01  0.203287263185561E-02
     0.235000000000000E+01  0.698459448433310E+00  0.101687156063697E-02  0.143171931121781E+01  0.208440826973959E-02
     0.240000000000000E+01  0.698270727704209E+00  0.104170894920560E-02  0.143210610833279E+01  0.213647470826562E-02
     0.245000000000000E+01  0.698077435994848E+00  0.106677256759212E-02  0.143250248923127E+01  0.218909003460558E-02
     0.250000000000000E+01  0.697879531445432E+00  0.109206993284442E-02  0.143290855544943E+01  0.224227288437707E-02
     0.255000000000000E+01  0.697676970813705E+00  0.111760878469375E-02  0.143332441195022E+01  0.229604246825471E-02
     0.260000000000000E+01  0.697469709434074E+00  0.114339709627179E-02  0.143375016722890E+01  0.235041859999754E-02
     0.265000000000000E+01  0.697257701174766E+00  0.116944308539816E-02  0.143418593342370E+01  0.240542172598717E-02
     0.270000000000000E+01  0.697040898392938E+00  0.119575522647625E-02  0.143463182643184E+01  0.246107295637909E-02
     0.275000000000000E+01  0.696819251887617E+00  0.122234226303897E-02  0.143508796603123E+01  0.251739409797695E-02
     0.280000000000000E+01  0.696592710850362E+00  0.124921322098857E-02  0.143555447600814E+01  0.257440768894855E-02
     0.285000000000000E+01  0.696361222813511E+00  0.127637742257871E-02  0.143603148429119E+01  0.263213703551143E-02
     0.290000000000000E+01  0.696124733595885E+00  0.130384450119016E-02  0.143651912309203E+01  0.269060625072599E-02
     0.295000000000000E+01  0.695883187245814E+00  0.133162441695626E-02  0.143701752905302E+01  0.274984029554546E-02
     0.300000000000000E+01  0.695636525981315E+00  0.135972747329821E-02  0.143752684340240E+01  0.280986502228379E-02
     0.305000000000000E+01  0.695384690127277E+00  0.138816433443572E-02  0.143804721211736E+01  0.287070722067617E-02
     0.310000000000000E+01  0.695127618049464E+00  0.141694604394337E-02  0.143857878609539E+01  0.293239466672099E-02
     0.315000000000000E+01  0.694865246085155E+00  0.144608404442958E-02  0.143912172133461E+01  0.299495617450836E-02
     0.320000000000000E+01  0.694597508470212E+00  0.147559019842108E-02  0.143967617912334E+01  0.305842165125737E-02
     0.325000000000000E+01  0.694324337262377E+00  0.150547681054309E-02  0.144024232623978E+01  0.312282215580363E-02
     0.330000000000000E+01  0.694045662260551E+00  0.153575665109318E-02  0.144082033516212E+01  0.318818996079951E-02
     0.335000000000000E+01  0.693761410919802E+00  0.156644298111556E-02  0.144141038429002E+01  0.325455861891285E-02
     0.340000000000000E+01  0.693471508261857E+00  0.159754957909159E-02  0.144201265817795E+01  0.332196303333497E-02
     0.345000000000000E+01  0.693175876780763E+00  0.162909076937326E-02  0.144262734778136E+01  0.339043953293740E-02
     0.350000000000000E+01  0.692874436343425E+00  0.166108145249746E-02  0.144325465071627E+01  0.346002595244723E-02
     0.355000000000000E+01  0.692567104084684E+00  0.169353713753178E-02  0.144389477153341E+01  0.353076171804544E-02
     0.360000000000000E+01  0.692253794296559E+00  0.172647397661665E-02  0.144454792200768E+01  0.360268793883059E-02
     0.365000000000000E+01  0.691934418311288E+00  0.175990880188396E-02  0.144521432144418E+01  0.367584750463175E-02
     0.370000000000000E+01  0.691608884377731E+00  0.179385916494986E-02  0.144589419700164E+01  0.375028519070124E-02
     0.375000000000000E+01  0.691277097530673E+00  0.182834337919830E-02  0.144658778403478E+01  0.382604776986957E-02
     0.379999999999999E+01  0.690938959452565E+00  0.186338056509332E-02  0.144729532645669E+01  0.390318413280172E-02
     0.384999999999999E+01  0.690594368327133E+00  0.189899069878149E-02  0.144801707712275E+01  0.398174541705835E-02
     0.390000000000000E+01  0.690243218684294E+00  0.193519466427274E-02  0.144875329823767E+01  0.406178514573629E-02
     0.394999999999999E+01  0.689885401235761E+00  0.197201430951647E-02  0.144950426178722E+01  0.414335937654181E-02
     0.399999999999999E+01  0.689520802700627E+00  0.200947250672357E-02  0.145027024999657E+01  0.422652686223960E-02
     0.404999999999999E+01  0.689149305620215E+00  0.204759321732081E-02  0.145105155581722E+01  0.431134922351869E-02
     0.409999999999999E+01  0.688770788161359E+00  0.208640156196608E-02  0.145184848344468E+01  0.439789113542866E-02
     0.414999999999999E+01  0.688385123907261E+00  0.212592389609830E-02  0.145266134886914E+01  0.448622052866348E-02
     0.419999999999999E+01  0.687992181634939E+00  0.216618789154864E-02  0.145349048046198E+01  0.457640880711146E-02
     0.424999999999999E+01  0.687591825078230E+00  0.220722262479720E-02  0.145433621960063E+01  0.466853108324741E-02
     0.429999999999999E+01  0.687183912675200E+00  0.224905867252602E-02  0.145519892133506E+01  0.476266643312127E-02
     0.434999999999999E+01  0.686768297298687E+00  0.229172821519294E-02  0.145607895509925E+01  0.485889817289909E-02
     0.439999999999999E+01  0.686344825968626E+00  0.233526514943574E-02  0.145697670547125E+01  0.495731415913994E-02
     0.444999999999999E+01  0.685913339544621E+00  0.237970521021057E-02  0.145789257298598E+01  0.505800711525066E-02
     0.449999999999999E+01  0.685473672397102E+00  0.242508610367781E-02  0.145882697500520E+01  0.516107498685371E-02
     0.454999999999999E+01  0.685025652055259E+00  0.247144765197088E-02  0.145978034664958E+01  0.526662132913721E-02
     0.459999999999999E+01  0.684569098829713E+00  0.251883195112457E-02  0.146075314179831E+01  0.537475572963662E-02
     0.464999999999999E+01  0.684103825407715E+00  0.256728354359925E-02  0.146174583416213E+01  0.548559427033262E-02
     0.469999999999999E+01  0.683629636418414E+00  0.261684960702099E-02  0.146275891843657E+01  0.559926003344650E-02
     0.474999999999999E+01  0.683146327965472E+00  0.266758016096787E-02  0.146379291154252E+01  0.571588365588576E-02
     0.479999999999999E+01  0.682653687124036E+00  0.271952829387423E-02  0.146484835396236E+01  0.583560393794797E-02
     0.484999999999999E+01  0.682151491398690E+00  0.277275041240314E-02  0.146592581118063E+01  0.595856851264709E-02
     0.489999999999999E+01  0.681639508138721E+00  0.282730651595824E-02  0.146702587523917E+01  0.608493458289824E-02
     0.494999999999999E+01  0.681117493906535E+00  0.288326049937795E-02  0.146814916641798E+01  0.621486973480746E-02
     0.499999999999999E+01  0.680585193794647E+00  0.294068048728569E-02  0.146929633505409E+01  0.634855283648388E-02
