#        \hbar \omega(eV)           Re(1/eps)            -Im(1/eps)               Re(eps)                Im(eps)
     0.000000000000000E+00  0.610579418029367E+00  -.496805222578583E-11  0.163778858322392E+01  -.133260620584182E-10
     0.500000000000000E-01  0.610576517501699E+00  0.316257647787014E-04  0.163779635910143E+01  0.848322215539699E-04
     0.100000000000000E+00  0.610567815416474E+00  0.632570344813585E-04  0.163781968852089E+01  0.169684044745046E-03
     0.150000000000000E+00  0.610553310266714E+00  0.948993074490970E-04  0.163785857684428E+01  0.254575058440330E-03
     0.200000000000000E+00  0.610532999539777E+00  0.126558093701554E-03  0.163791303301244E+01  0.339524892615537E-03
     0.250000000000000E+00  0.610506879715830E+00  0.158238913335450E-03  0.163798306955136E+01  0.424553218971615E-03
     0.300000000000000E+00  0.610474946265728E+00  0.189947299904925E-03  0.163806870258100E+01  0.509679764939261E-03
     0.350000000000000E+00  0.610437193648253E+00  0.221688803820195E-03  0.163816995182662E+01  0.594924327766133E-03
     0.400000000000000E+00  0.610393615306758E+00  0.253468995769211E-03  0.163828684063277E+01  0.680306788707828E-03
     0.450000000000000E+00  0.610344203665177E+00  0.285293470167020E-03  0.163841939597971E+01  0.765847127343946E-03
     0.500000000000000E+00  0.610288950123411E+00  0.317167848637643E-03  0.163856764850257E+01  0.851565436040928E-03
     0.550000000000000E+00  0.610227845052075E+00  0.349097783533311E-03  0.163873163251309E+01  0.937481934583673E-03
     0.600000000000000E+00  0.610160877786610E+00  0.381088961496048E-03  0.163891138602399E+01  0.102361698499844E-02
     0.650000000000000E+00  0.610088036620740E+00  0.413147107066637E-03  0.163910695077608E+01  0.110999110658997E-02
     0.700000000000000E+00  0.610009308799276E+00  0.445277986346183E-03  0.163931837226813E+01  0.119662499121640E-02
     0.750000000000000E+00  0.609924680510249E+00  0.477487410715552E-03  0.163954569978946E+01  0.128353951882610E-02
     0.800000000000000E+00  0.609834136876362E+00  0.509781240618173E-03  0.163978898645544E+01  0.137075577328127E-02
     0.850000000000000E+00  0.609737661945756E+00  0.542165389411819E-03  0.164004828924583E+01  0.145829505849396E-02
     0.900000000000000E+00  0.609635238682063E+00  0.574645827295129E-03  0.164032366904607E+01  0.154617891490086E-02
     0.950000000000000E+00  0.609526848953758E+00  0.607228585314902E-03  0.164061519069158E+01  0.163442913630432E-02
     0.100000000000000E+01  0.609412473522758E+00  0.639919759460310E-03  0.164092292301518E+01  0.172306778710786E-02
     0.105000000000000E+01  0.609292092032288E+00  0.672725514850477E-03  0.164124693889760E+01  0.181211721997559E-02
     0.110000000000000E+01  0.609165682993973E+00  0.705652090022071E-03  0.164158731532126E+01  0.190160009394625E-02
     0.115000000000000E+01  0.609033223774147E+00  0.738705801323816E-03  0.164194413342733E+01  0.199153939303346E-02
     0.120000000000000E+01  0.608894690579357E+00  0.771893047425162E-03  0.164231747857624E+01  0.208195844534566E-02
     0.125000000000000E+01  0.608750058441045E+00  0.805220313946596E-03  0.164270744041164E+01  0.217288094276015E-02
     0.130000000000000E+01  0.608599301199376E+00  0.838694178219441E-03  0.164311411292799E+01  0.226433096118763E-02
     0.135000000000000E+01  0.608442391486202E+00  0.872321314183329E-03  0.164353759454184E+01  0.235633298146511E-02
     0.140000000000000E+01  0.608279300707117E+00  0.906108497429930E-03  0.164397798816699E+01  0.244891191091691E-02
     0.145000000000000E+01  0.608109999022605E+00  0.940062610401903E-03  0.164443540129349E+01  0.254209310562544E-02
     0.150000000000000E+01  0.607934455328216E+00  0.974190647756467E-03  0.164490994607084E+01  0.263590239345565E-02
     0.155000000000000E+01  0.607752637233776E+00  0.100849972190351E-02  0.164540173939532E+01  0.273036609787913E-02
     0.160000000000000E+01  0.607564511041568E+00  0.104299706872857E-02  0.164591090300175E+01  0.282551106264625E-02
     0.165000000000000E+01  0.607370041723479E+00  0.107769005351160E-02  0.164643756355968E+01  0.292136467735754E-02
     0.170000000000000E+01  0.607169192897043E+00  0.111258617705315E-02  0.164698185277437E+01  0.301795490398813E-02
     0.175000000000000E+01  0.606961926800384E+00  0.114769308201975E-02  0.164754390749256E+01  0.311531030442188E-02
     0.180000000000000E+01  0.606748204265974E+00  0.118301855952168E-02  0.164812386981328E+01  0.321346006905546E-02
     0.185000000000000E+01  0.606527984693201E+00  0.121857055593629E-02  0.164872188720398E+01  0.331243404653577E-02
     0.190000000000000E+01  0.606301226019674E+00  0.125435717999115E-02  0.164933811262199E+01  0.341226277469760E-02
     0.195000000000000E+01  0.606067884691248E+00  0.129038671012232E-02  0.164997270464172E+01  0.351297751277300E-02
     0.200000000000000E+01  0.605827915630674E+00  0.132666760212328E-02  0.165062582758777E+01  0.361461027494742E-02
     0.205000000000000E+01  0.605581272204874E+00  0.136320849710170E-02  0.165129765167413E+01  0.371719386534248E-02
     0.210000000000000E+01  0.605327906190737E+00  0.140001822976180E-02  0.165198835314983E+01  0.382076191451046E-02
     0.215000000000000E+01  0.605067767739414E+00  0.143710583703111E-02  0.165269811445125E+01  0.392534891753000E-02
     0.220000000000000E+01  0.604800805339020E+00  0.147448056705200E-02  0.165342712436143E+01  0.403099027379936E-02
     0.225000000000000E+01  0.604526965775693E+00  0.151215188855909E-02  0.165417557817662E+01  0.413772232862848E-02
     0.230000000000000E+01  0.604246194092942E+00  0.155012950066530E-02  0.165494367788047E+01  0.424558241673833E-02
     0.235000000000000E+01  0.603958433549192E+00  0.158842334308069E-02  0.165573163232617E+01  0.435460890778299E-02
     0.240000000000000E+01  0.603663625573468E+00  0.162704360678967E-02  0.165653965742695E+01  0.446484125401729E-02
     0.245000000000000E+01  0.603361709719114E+00  0.166600074521404E-02  0.165736797635524E+01  0.457632004024108E-02
     0.250000000000000E+01  0.603052623615480E+00  0.170530548589077E-02  0.165821681975099E+01  0.468908703616014E-02
     0.255000000000000E+01  0.602736302917468E+00  0.174496884269578E-02  0.165908642593960E+01  0.480318525131298E-02
     0.260000000000000E+01  0.602412681252840E+00  0.178500212864670E-02  0.165997704115980E+01  0.491865899272339E-02
     0.265000000000000E+01  0.602081690167181E+00  0.182541696932007E-02  0.166088891980214E+01  0.503555392544930E-02
     0.270000000000000E+01  0.601743259066424E+00  0.186622531692068E-02  0.166182232465852E+01  0.515391713621070E-02
     0.275000000000000E+01  0.601397315156783E+00  0.190743946504360E-02  0.166277752718333E+01  0.527379720029220E-02
     0.280000000000000E+01  0.601043783382009E+00  0.194907206417193E-02  0.166375480776677E+01  0.539524425192985E-02
     0.285000000000000E+01  0.600682586357796E+00  0.199113613795685E-02  0.166475445602110E+01  0.551831005840726E-02
     0.290000000000000E+01  0.600313644303229E+00  0.203364510032924E-02  0.166577677108031E+01  0.564304809810152E-02
     0.295000000000000E+01  0.599936874969101E+00  0.207661277349636E-02  0.166682206191406E+01  0.576951364273875E-02
     0.300000000000000E+01  0.599552193562945E+00  0.212005340688047E-02  0.166789064765666E+01  0.589776384413702E-02
     0.305000000000000E+01  0.599159512670622E+00  0.216398169706070E-02  0.166898285795175E+01  0.602785782573579E-02
     0.310000000000000E+01  0.598758742174254E+00  0.220841280878411E-02  0.167009903331377E+01  0.615985677923463E-02
     0.315000000000000E+01  0.598349789166350E+00  0.225336239711664E-02  0.167123952550688E+01  0.629382406668699E-02
     0.320000000000000E+01  0.597932557859875E+00  0.229884663081022E-02  0.167240469794263E+01  0.642982532842369E-02
     0.325000000000000E+01  0.597506949494082E+00  0.234488221696817E-02  0.167359492609706E+01  0.656792859720877E-02
     0.330000000000000E+01  0.597072862235842E+00  0.239148642709720E-02  0.167481059794875E+01  0.670820441906285E-02
     0.335000000000000E+01  0.596630191076241E+00  0.243867712464164E-02  0.167605211443864E+01  0.685072598122417E-02
     0.340000000000000E+01  0.596178827722173E+00  0.248647279410278E-02  0.167731988995321E+01  0.699556924775544E-02
     0.345000000000000E+01  0.595718660482628E+00  0.253489257185477E-02  0.167861435283222E+01  0.714281310334624E-02
     0.350000000000000E+01  0.595249574149404E+00  0.258395627877730E-02  0.167993594590253E+01  0.729253950590645E-02
     0.355000000000000E+01  0.594771449871873E+00  0.263368445483557E-02  0.168128512703959E+01  0.744483364859609E-02
     0.360000000000000E+01  0.594284165025492E+00  0.268409839574843E-02  0.168266236975826E+01  0.759978413199124E-02
     0.365000000000000E+01  0.593787593073658E+00  0.273522019189796E-02  0.168406816383483E+01  0.775748314714641E-02
     0.370000000000000E+01  0.593281603422514E+00  0.278707276964629E-02  0.168550301596210E+01  0.791802667037898E-02
     0.375000000000000E+01  0.592766061268274E+00  0.283967993524027E-02  0.168696745043973E+01  0.808151467067390E-02
     0.379999999999999E+01  0.592240827436614E+00  0.289306642149984E-02  0.168846200990201E+01  0.824805133068682E-02
     0.384999999999999E+01  0.591705758213605E+00  0.294725793750359E-02  0.168998725608550E+01  0.841774528241084E-02
     0.390000000000000E+01  0.591160705167693E+00  0.300228122150396E-02  0.169154377063924E+01  0.859070985866961E-02
     0.394999999999999E+01  0.590605514962113E+00  0.305816409732541E-02  0.169313215598018E+01  0.876706336170585E-02
     0.399999999999999E+01  0.590040029157134E+00  0.311493553452227E-02  0.169475303619704E+01  0.894692935025225E-02
     0.404999999999999E+01  0.589464084001477E+00  0.317262571259849E-02  0.169640705800571E+01  0.913043694660281E-02
     0.409999999999999E+01  0.588877510212161E+00  0.323126608961969E-02  0.169809489175991E+01  0.931772116534618E-02
     0.414999999999999E+01  0.588280132742018E+00  0.329088947557986E-02  0.169981723252079E+01  0.950892326558493E-02
     0.419999999999999E+01  0.587671770534027E+00  0.335153011091902E-02  0.170157480118969E+01  0.970419112863970E-02
     0.424999999999999E+01  0.587052236261562E+00  0.341322375062774E-02  0.170336834570854E+01  0.990367966343872E-02
     0.429999999999999E+01  0.586421336053564E+00  0.347600775441657E-02  0.170519864233277E+01  0.101075512420099E-01
     0.434999999999999E+01  0.585778869203567E+00  0.353992118347706E-02  0.170706649698204E+01  0.103159761677418E-01
     0.439999999999999E+01  0.585124627861428E+00  0.360500490441369E-02  0.170897274667452E+01  0.105291331793507E-01
     0.444999999999999E+01  0.584458396706502E+00  0.367130170098621E-02  0.171091826105087E+01  0.107472099938000E-01
     0.449999999999999E+01  0.583779952600881E+00  0.373885639436804E-02  0.171290394399500E+01  0.109704038917596E-01
     0.454999999999999E+01  0.583089064221228E+00  0.380771597270135E-02  0.171493073535864E+01  0.111989223495779E-01
     0.459999999999999E+01  0.582385491667574E+00  0.387792973081265E-02  0.171699961279820E+01  0.114329837221710E-01
     0.464999999999999E+01  0.581668986047312E+00  0.394954942104696E-02  0.171911159373239E+01  0.116728179817182E-01
     0.469999999999999E+01  0.580939289032466E+00  0.402262941628414E-02  0.172126773743058E+01  0.119186675176003E-01
     0.474999999999999E+01  0.580196132388116E+00  0.409722688631986E-02  0.172346914724219E+01  0.121707880036329E-01
     0.479999999999999E+01  0.579439237469684E+00  0.417340198892819E-02  0.172571697297894E+01  0.124294493393438E-01
     0.484999999999999E+01  0.578668314686545E+00  0.425121807707462E-02  0.172801241346242E+01  0.126949366728332E-01
     0.489999999999999E+01  0.577883062929192E+00  0.433074192391990E-02  0.173035671925123E+01  0.129675515136459E-01
     0.494999999999999E+01  0.577083168956931E+00  0.441204396745058E-02  0.173275119556268E+01  0.132476129451033E-01
     0.499999999999999E+01  0.576268306742729E+00  0.449519857679370E-02  0.173519720540631E+01  0.135354589466970E-01
