#        \hbar \omega(eV)           Re(1/eps)            -Im(1/eps)               Re(eps)                Im(eps)
     0.000000000000000E+00  0.463898875890731E+00  0.203619929784974E-10  0.215564221422159E+01  0.946179736819873E-10
     0.500000000000000E-01  0.463895645056465E+00  0.352163602556906E-04  0.215565721492230E+01  0.163645427322867E-03
     0.100000000000000E+00  0.463885952093358E+00  0.704377330260263E-04  0.215570222040809E+01  0.327327820123680E-03
     0.150000000000000E+00  0.463869795620239E+00  0.105669173806075E-03  0.215577724083204E+01  0.491084356212657E-03
     0.200000000000000E+00  0.463847173334483E+00  0.140915722242569E-03  0.215588229312295E+01  0.654952165001803E-03
     0.250000000000000E+00  0.463818082010970E+00  0.176182424757847E-03  0.215601740099581E+01  0.818968445302160E-03
     0.300000000000000E+00  0.463782517500651E+00  0.211474336817959E-03  0.215618259496655E+01  0.983170488586466E-03
     0.350000000000000E+00  0.463740474728693E+00  0.246796525208983E-03  0.215637791237094E+01  0.114759570236326E-02
     0.400000000000000E+00  0.463691947692210E+00  0.282154070323651E-03  0.215660339738782E+01  0.131228163369077E-02
     0.450000000000000E+00  0.463636929457575E+00  0.317552068460348E-03  0.215685910106657E+01  0.147726599285894E-02
     0.500000000000000E+00  0.463575412157314E+00  0.352995634136639E-03  0.215714508135890E+01  0.164258667726884E-02
     0.550000000000000E+00  0.463507386986576E+00  0.388489902419411E-03  0.215746140315503E+01  0.180828179553828E-02
     0.600000000000000E+00  0.463432844199184E+00  0.424040031273823E-03  0.215780813832421E+01  0.197438969186362E-02
     0.650000000000000E+00  0.463351773103239E+00  0.459651203933253E-03  0.215818536575972E+01  0.214094897066802E-02
     0.700000000000000E+00  0.463264162056310E+00  0.495328631292439E-03  0.215859317142840E+01  0.230799852156678E-02
     0.750000000000000E+00  0.463169998460176E+00  0.531077554326108E-03  0.215903164842468E+01  0.247557754468122E-02
     0.800000000000000E+00  0.463069268755129E+00  0.566903246535336E-03  0.215950089702927E+01  0.264372557633323E-02
     0.850000000000000E+00  0.462961958413821E+00  0.602811016424053E-03  0.216000102477254E+01  0.281248251515358E-02
     0.900000000000000E+00  0.462848051934673E+00  0.638806210008008E-03  0.216053214650270E+01  0.298188864863723E-02
     0.950000000000000E+00  0.462727532834805E+00  0.674894213358668E-03  0.216109438445881E+01  0.315198468018080E-02
     0.100000000000000E+01  0.462600383642520E+00  0.711080455184560E-03  0.216168786834873E+01  0.332281175663744E-02
     0.105000000000000E+01  0.462466585889294E+00  0.747370409452538E-03  0.216231273543216E+01  0.349441149642586E-02
     0.110000000000000E+01  0.462326120101305E+00  0.783769598051693E-03  0.216296913060877E+01  0.366682601823143E-02
     0.115000000000000E+01  0.462178965790461E+00  0.820283593502482E-03  0.216365720651166E+01  0.384009797033814E-02
     0.120000000000000E+01  0.462025101444927E+00  0.856918021713923E-03  0.216437712360615E+01  0.401427056063215E-02
     0.125000000000000E+01  0.461864504519167E+00  0.893678564791592E-03  0.216512905029405E+01  0.418938758731798E-02
     0.130000000000000E+01  0.461697151423443E+00  0.930570963899458E-03  0.216591316302360E+01  0.436549347039149E-02
     0.135000000000000E+01  0.461523017512810E+00  0.967601022178412E-03  0.216672964640520E+01  0.454263328391363E-02
     0.140000000000000E+01  0.461342077075567E+00  0.100477460772472E-02  0.216757869333300E+01  0.472085278913196E-02
     0.145000000000000E+01  0.461154303321154E+00  0.104209765663149E-02  0.216846050511264E+01  0.490019846849852E-02
     0.150000000000000E+01  0.460959668367509E+00  0.107957617609652E-02  0.216937529159514E+01  0.508071756063340E-02
     0.155000000000000E+01  0.460758143227828E+00  0.111721624759986E-02  0.217032327131732E+01  0.526245809628774E-02
     0.160000000000000E+01  0.460549697796765E+00  0.115502403015471E-02  0.217130467164872E+01  0.544546893535945E-02
     0.165000000000000E+01  0.460334300836024E+00  0.119300576363520E-02  0.217231972894540E+01  0.562979980501923E-02
     0.170000000000000E+01  0.460111919959336E+00  0.123116777218484E-02  0.217336868871067E+01  0.581550133900614E-02
     0.175000000000000E+01  0.459882521616810E+00  0.126951646770969E-02  0.217445180576311E+01  0.600262511815460E-02
     0.180000000000000E+01  0.459646071078655E+00  0.130805835346012E-02  0.217556934441192E+01  0.619122371221749E-02
     0.185000000000000E+01  0.459402532418219E+00  0.134680002770545E-02  0.217672157864015E+01  0.638135072305346E-02
     0.190000000000000E+01  0.459151868494382E+00  0.138574818750588E-02  0.217790879229561E+01  0.657306082924868E-02
     0.195000000000000E+01  0.458894040933221E+00  0.142490963258628E-02  0.217913127929019E+01  0.676640983224820E-02
     0.200000000000000E+01  0.458629010108993E+00  0.146429126931639E-02  0.218038934380755E+01  0.696145470407367E-02
     0.205000000000000E+01  0.458356735124368E+00  0.150390011480257E-02  0.218168330051963E+01  0.715825363670957E-02
     0.210000000000000E+01  0.458077173789914E+00  0.154374330109612E-02  0.218301347481215E+01  0.735686609324347E-02
     0.215000000000000E+01  0.457790282602809E+00  0.158382807952336E-02  0.218438020301962E+01  0.755735286084944E-02
     0.220000000000000E+01  0.457496016724750E+00  0.162416182514342E-02  0.218578383266999E+01  0.775977610571012E-02
     0.225000000000000E+01  0.457194329959050E+00  0.166475204133896E-02  0.218722472273947E+01  0.796419942997480E-02
     0.230000000000000E+01  0.456885174726883E+00  0.170560636454640E-02  0.218870324391776E+01  0.817068793085931E-02
     0.235000000000000E+01  0.456568502042669E+00  0.174673256913161E-02  0.219021977888413E+01  0.837930826199573E-02
     0.240000000000000E+01  0.456244261488538E+00  0.178813857241779E-02  0.219177472259485E+01  0.859012869714880E-02
     0.245000000000000E+01  0.455912401187900E+00  0.182983243987229E-02  0.219336848258226E+01  0.880321919641833E-02
     0.250000000000000E+01  0.455572867778033E+00  0.187182239045976E-02  0.219500147926600E+01  0.901865147505721E-02
     0.255000000000000E+01  0.455225606381706E+00  0.191411680216880E-02  0.219667414627692E+01  0.923649907503846E-02
     0.260000000000000E+01  0.454870560577765E+00  0.195672421772027E-02  0.219838693079413E+01  0.945683743951419E-02
     0.265000000000000E+01  0.454507672370691E+00  0.199965335046532E-02  0.220014029389569E+01  0.967974399031504E-02
     0.270000000000000E+01  0.454136882159044E+00  0.204291309048165E-02  0.220193471092361E+01  0.990529820864979E-02
     0.275000000000000E+01  0.453758128702816E+00  0.208651251087713E-02  0.220377067186357E+01  0.101335817191695E-01
     0.280000000000000E+01  0.453371349089595E+00  0.213046087431015E-02  0.220564868174020E+01  0.103646783775757E-01
     0.285000000000000E+01  0.452976478699549E+00  0.217476763973646E-02  0.220756926102832E+01  0.105986743619544E-01
     0.290000000000000E+01  0.452573451169161E+00  0.221944246939303E-02  0.220953294608103E+01  0.108356582680374E-01
     0.295000000000000E+01  0.452162198353670E+00  0.226449523602958E-02  0.221154028957532E+01  0.110757212085952E-01
     0.300000000000000E+01  0.451742650288196E+00  0.230993603039927E-02  0.221359186097580E+01  0.113189569171839E-01
     0.305000000000000E+01  0.451314735147479E+00  0.235577516902039E-02  0.221568824701762E+01  0.115654618564775E-01
     0.310000000000000E+01  0.450878379204185E+00  0.240202320222174E-02  0.221783005220914E+01  0.118153353314342E-01
     0.315000000000000E+01  0.450433506785736E+00  0.244869092248458E-02  0.222001789935549E+01  0.120686796075563E-01
     0.320000000000000E+01  0.449980040229606E+00  0.249578937309529E-02  0.222225243010373E+01  0.123256000345216E-01
     0.325000000000000E+01  0.449517899837024E+00  0.254332985712293E-02  0.222453430551072E+01  0.125862051754800E-01
     0.330000000000000E+01  0.449047003825020E+00  0.259132394673727E-02  0.222686420663472E+01  0.128506069423263E-01
     0.335000000000000E+01  0.448567268276763E+00  0.263978349288312E-02  0.222924283515181E+01  0.131189207372814E-01
     0.340000000000000E+01  0.448078607090117E+00  0.268872063532792E-02  0.223167091399821E+01  0.133912656011300E-01
     0.345000000000000E+01  0.447580931924340E+00  0.273814781310048E-02  0.223414918803985E+01  0.136677643684911E-01
     0.350000000000000E+01  0.447074152144880E+00  0.278807777533926E-02  0.223667842477034E+01  0.139485438305146E-01
     0.355000000000000E+01  0.446558174766164E+00  0.283852359257036E-02  0.223925941503877E+01  0.142337349054269E-01
     0.360000000000000E+01  0.446032904392301E+00  0.288949866843560E-02  0.224189297380880E+01  0.145234728173733E-01
     0.365000000000000E+01  0.445498243155665E+00  0.294101675189259E-02  0.224457994095043E+01  0.148178972840318E-01
     0.370000000000000E+01  0.444954090653184E+00  0.299309194991027E-02  0.224732118206620E+01  0.151171527135101E-01
     0.375000000000000E+01  0.444400343880345E+00  0.304573874068372E-02  0.225011758935344E+01  0.154213884110605E-01
     0.379999999999999E+01  0.443836897162723E+00  0.309897198739428E-02  0.225297008250430E+01  0.157307587961945E-01
     0.384999999999999E+01  0.443263642085023E+00  0.315280695254188E-02  0.225587960964553E+01  0.160454236308054E-01
     0.390000000000000E+01  0.442680467417456E+00  0.320725931287845E-02  0.225884714832011E+01  0.163655482589584E-01
     0.394999999999999E+01  0.442087259039380E+00  0.326234517497232E-02  0.226187370651259E+01  0.166913038590438E-01
     0.399999999999999E+01  0.441483899860088E+00  0.331808109143585E-02  0.226496032372059E+01  0.170228677090408E-01
     0.404999999999999E+01  0.440870269736604E+00  0.337448407784989E-02  0.226810807207490E+01  0.173604234656880E-01
     0.409999999999999E+01  0.440246245388381E+00  0.343157163042086E-02  0.227131805751043E+01  0.177041614584117E-01
     0.414999999999999E+01  0.439611700308733E+00  0.348936174440842E-02  0.227459142099107E+01  0.180542789989254E-01
     0.419999999999999E+01  0.438966504672916E+00  0.354787293336318E-02  0.227792933979084E+01  0.184109807074682E-01
     0.424999999999999E+01  0.438310525242646E+00  0.360712424921762E-02  0.228133302883496E+01  0.187744788567332E-01
     0.429999999999999E+01  0.437643625266942E+00  0.366713530327452E-02  0.228480374210337E+01  0.191449937345949E-01
     0.434999999999999E+01  0.436965664379117E+00  0.372792628814044E-02  0.228834277410066E+01  0.195227540268350E-01
     0.439999999999999E+01  0.436276498489738E+00  0.378951800065531E-02  0.229195146139575E+01  0.199079972211516E-01
     0.444999999999999E+01  0.435575979675372E+00  0.385193186587063E-02  0.229563118423528E+01  0.203009700338216E-01
     0.449999999999999E+01  0.434863956062957E+00  0.391518996213393E-02  0.229938336823475E+01  0.207019288604988E-01
     0.454999999999999E+01  0.434140271709539E+00  0.397931504733936E-02  0.230320948615179E+01  0.211111402527304E-01
     0.459999999999999E+01  0.433404766477211E+00  0.404433058640817E-02  0.230711105974639E+01  0.215288814218971E-01
     0.464999999999999E+01  0.432657275903023E+00  0.411026078006755E-02  0.231108966173264E+01  0.219554407724059E-01
     0.469999999999999E+01  0.431897631063586E+00  0.417713059499982E-02  0.231514691782782E+01  0.223911184661126E-01
     0.474999999999999E+01  0.431125658434180E+00  0.424496579543883E-02  0.231928450890394E+01  0.228362270200892E-01
     0.479999999999999E+01  0.430341179742052E+00  0.431379297629534E-02  0.232350417324813E+01  0.232910919400244E-01
     0.484999999999999E+01  0.429544011813654E+00  0.438363959789876E-02  0.232780770893815E+01  0.237560523917212E-01
     0.489999999999999E+01  0.428733966415512E+00  0.445453402244750E-02  0.233219697633996E+01  0.242314619133466E-01
     0.494999999999999E+01  0.427910850088425E+00  0.452650555226690E-02  0.233667390073448E+01  0.247176891712984E-01
     0.499999999999999E+01  0.427074463974648E+00  0.459958446998047E-02  0.234124047508185E+01  0.252151187627913E-01
