#        \hbar \omega(eV)           Re(1/eps)            -Im(1/eps)               Re(eps)                Im(eps)
     0.000000000000000E+00  0.322016418739582E+00  -.343285782068092E-10  0.310543171653838E+01  -.331054720639279E-09
     0.500000000000000E-01  0.322012403751126E+00  0.437687384852630E-04  0.310547037901664E+01  0.422103370272533E-03
     0.100000000000000E+00  0.322000358168356E+00  0.875442743394555E-04  0.310558637813820E+01  0.844335414467016E-03
     0.150000000000000E+00  0.321980280138860E+00  0.131333340632404E-03  0.310577974897242E+01  0.126682425869406E-02
     0.200000000000000E+00  0.321952166573968E+00  0.175142713497133E-03  0.310605055000260E+01  0.168969858900370E-02
     0.250000000000000E+00  0.321916013146778E+00  0.218979182186001E-03  0.310639886317768E+01  0.211308743529952E-02
     0.300000000000000E+00  0.321871814289384E+00  0.262849553476350E-03  0.310682479398460E+01  0.253712028694101E-02
     0.350000000000000E+00  0.321819563189308E+00  0.306760656104183E-03  0.310732847154175E+01  0.296192720919406E-02
     0.400000000000000E+00  0.321759251785123E+00  0.350719345233007E-03  0.310791004871338E+01  0.338763896074624E-02
     0.450000000000000E+00  0.321690870761276E+00  0.394732506965119E-03  0.310856970224530E+01  0.381438711250741E-02
     0.500000000000000E+00  0.321614409542067E+00  0.438807062902742E-03  0.310930763292236E+01  0.424230416792093E-02
     0.550000000000000E+00  0.321529856284832E+00  0.482949974766513E-03  0.311012406574738E+01  0.467152368501301E-02
     0.600000000000000E+00  0.321437197872257E+00  0.527168249079069E-03  0.311101925014262E+01  0.510218040041754E-02
     0.650000000000000E+00  0.321336419903850E+00  0.571468941921639E-03  0.311199346017357E+01  0.553441035561604E-02
     0.700000000000000E+00  0.321227506686555E+00  0.615859163771748E-03  0.311304699479580E+01  0.596835102564192E-02
     0.750000000000000E+00  0.321110441224473E+00  0.660346084430451E-03  0.311418017812514E+01  0.640414145050582E-02
     0.800000000000000E+00  0.320985205207680E+00  0.704936938047726E-03  0.311539335973192E+01  0.684192236960799E-02
     0.850000000000000E+00  0.320851779000157E+00  0.749639028254986E-03  0.311668691495950E+01  0.728183635941170E-02
     0.900000000000000E+00  0.320710141626743E+00  0.794459733414053E-03  0.311806124526811E+01  0.772402797466704E-02
     0.950000000000000E+00  0.320560270759168E+00  0.839406511992164E-03  0.311951677860418E+01  0.816864389347997E-02
     0.100000000000000E+01  0.320402142701070E+00  0.884486908073187E-03  0.312105396979641E+01  0.861583306654193E-02
     0.105000000000000E+01  0.320235732372044E+00  0.929708557015438E-03  0.312267330097875E+01  0.906574687084177E-02
     0.110000000000000E+01  0.320061013290618E+00  0.975079191267164E-03  0.312437528204171E+01  0.951853926820536E-02
     0.115000000000000E+01  0.319877957556199E+00  0.102060664635112E-02  0.312616045111233E+01  0.997436696901727E-02
     0.120000000000000E+01  0.319686535829905E+00  0.106629886703033E-02  0.312802937506430E+01  0.104333896015042E-01
     0.125000000000000E+01  0.319486717314277E+00  0.111216391366764E-02  0.312998265005878E+01  0.108957698869744E-01
     0.130000000000000E+01  0.319278469731837E+00  0.115820996879246E-02  0.313202090211723E+01  0.113616738214303E-01
     0.135000000000000E+01  0.319061759302426E+00  0.120444534388860E-02  0.313414478772760E+01  0.118312708639995E-01
     0.140000000000000E+01  0.318836550719320E+00  0.125087848641804E-02  0.313635499448464E+01  0.123047341326444E-01
     0.145000000000000E+01  0.318602807124052E+00  0.129751798709636E-02  0.313865224176616E+01  0.127822406076486E-01
     0.150000000000000E+01  0.318360490079908E+00  0.134437258743604E-02  0.314103728144636E+01  0.132639713434013E-01
     0.155000000000000E+01  0.318109559544038E+00  0.139145118757542E-02  0.314351089864788E+01  0.137501116890339E-01
     0.160000000000000E+01  0.317849973838147E+00  0.143876285441171E-02  0.314607391253403E+01  0.142408515184985E-01
     0.165000000000000E+01  0.317581689617684E+00  0.148631683005752E-02  0.314872717714321E+01  0.147363854707160E-01
     0.170000000000000E+01  0.317304661839502E+00  0.153412254064217E-02  0.315147158226693E+01  0.152369132004573E-01
     0.175000000000000E+01  0.317018843727890E+00  0.158218960547946E-02  0.315430805437394E+01  0.157426396406717E-01
     0.180000000000000E+01  0.316724186738950E+00  0.163052784662589E-02  0.315723755758190E+01  0.162537752770156E-01
     0.185000000000000E+01  0.316420640523214E+00  0.167914729885432E-02  0.316026109467939E+01  0.167705364353941E-01
     0.190000000000000E+01  0.316108152886440E+00  0.172805822006968E-02  0.316337970820024E+01  0.172931455833753E-01
     0.195000000000000E+01  0.315786669748511E+00  0.177727110219573E-02  0.316659448155297E+01  0.178218316464041E-01
     0.200000000000000E+01  0.315456135100348E+00  0.182679668256291E-02  0.316990654020769E+01  0.183568303397993E-01
     0.205000000000000E+01  0.315116490958722E+00  0.187664595583038E-02  0.317331705294380E+01  0.188983845175995E-01
     0.210000000000000E+01  0.314767677318927E+00  0.192683018647682E-02  0.317682723316098E+01  0.194467445393833E-01
     0.215000000000000E+01  0.314409632105143E+00  0.197736092189760E-02  0.318043834025717E+01  0.200021686562907E-01
     0.220000000000000E+01  0.314042291118419E+00  0.202825000614841E-02  0.318415168107689E+01  0.205649234175482E-01
     0.225000000000000E+01  0.313665587982157E+00  0.207950959437815E-02  0.318796861143345E+01  0.211352840989027E-01
     0.230000000000000E+01  0.313279454084953E+00  0.213115216799767E-02  0.319189053770925E+01  0.217135351544812E-01
     0.235000000000000E+01  0.312883818520689E+00  0.218319055063340E-02  0.319591891853807E+01  0.222999706936952E-01
     0.240000000000000E+01  0.312478608025699E+00  0.223563792491996E-02  0.320005526657442E+01  0.228948949849560E-01
     0.245000000000000E+01  0.312063746912901E+00  0.228850785018859E-02  0.320430115035412E+01  0.234986229880795E-01
     0.250000000000000E+01  0.311639157002685E+00  0.234181428111372E-02  0.320865819625174E+01  0.241114809174323E-01
     0.255000000000000E+01  0.311204757550435E+00  0.239557158738429E-02  0.321312809054032E+01  0.247338068380181E-01
     0.260000000000000E+01  0.310760465170451E+00  0.244979457447191E-02  0.321771258155915E+01  0.253659512968935E-01
     0.265000000000000E+01  0.310306193756117E+00  0.250449850557386E-02  0.322241348199620E+01  0.260082779924899E-01
     0.270000000000000E+01  0.309841854396067E+00  0.255969912481494E-02  0.322723267129173E+01  0.266611644846408E-01
     0.275000000000000E+01  0.309367355286149E+00  0.261541268179951E-02  0.323217209817072E+01  0.273250029483402E-01
     0.280000000000000E+01  0.308882601636944E+00  0.267165595761234E-02  0.323723378331147E+01  0.280002009745232E-01
     0.285000000000000E+01  0.308387495576543E+00  0.272844629237537E-02  0.324241982215942E+01  0.286871824214399E-01
     0.290000000000000E+01  0.307881936048370E+00  0.278580161447670E-02  0.324773238789456E+01  0.293863883205006E-01
     0.295000000000000E+01  0.307365818703680E+00  0.284374047159795E-02  0.325317373456272E+01  0.300982778408233E-01
     0.300000000000000E+01  0.306839035788467E+00  0.290228206367739E-02  0.325874620038081E+01  0.308233293170764E-01
     0.305000000000000E+01  0.306301476024403E+00  0.296144627795843E-02  0.326445221122757E+01  0.315620413456409E-01
     0.310000000000000E+01  0.305753024483451E+00  0.302125372628628E-02  0.327029428433175E+01  0.323149339545611E-01
     0.315000000000000E+01  0.305193562455742E+00  0.308172578483075E-02  0.327627503217107E+01  0.330825498532688E-01
     0.320000000000000E+01  0.304622967310303E+00  0.314288463642907E-02  0.328239716659585E+01  0.338654557686185E-01
     0.325000000000000E+01  0.304041112348143E+00  0.320475331576130E-02  0.328866350319288E+01  0.346642438744022E-01
     0.330000000000000E+01  0.303447866647225E+00  0.326735575759049E-02  0.329507696590579E+01  0.354795333221848E-01
     0.335000000000000E+01  0.302843094898749E+00  0.333071684832224E-02  0.330164059193013E+01  0.363119718820828E-01
     0.340000000000000E+01  0.302226657234191E+00  0.339486248116309E-02  0.330835753690224E+01  0.371622377029419E-01
     0.345000000000000E+01  0.301598409042452E+00  0.345981961518442E-02  0.331523108040309E+01  0.380310412023199E-01
     0.350000000000000E+01  0.300958200776404E+00  0.352561633862962E-02  0.332226463180003E+01  0.389191270977449E-01
     0.355000000000000E+01  0.300305877748134E+00  0.359228193683565E-02  0.332946173645087E+01  0.398272765918656E-01
     0.360000000000000E+01  0.299641279912035E+00  0.365984696517928E-02  0.333682608229768E+01  0.407563097254602E-01
     0.365000000000000E+01  0.298964241634889E+00  0.372834332749986E-02  0.334436150687925E+01  0.417070879137056E-01
     0.370000000000000E+01  0.298274591451966E+00  0.379780436049923E-02  0.335207200479444E+01  0.426805166827822E-01
     0.375000000000000E+01  0.297572151808128E+00  0.386826492467181E-02  0.335996173565104E+01  0.436775486257155E-01
     0.379999999999999E+01  0.296856738782752E+00  0.393976150237948E-02  0.336803503253854E+01  0.446991865984608E-01
     0.384999999999999E+01  0.296128161797286E+00  0.401233230375209E-02  0.337629641106586E+01  0.457464871795450E-01
     0.390000000000000E+01  0.295386223304052E+00  0.408601738117192E-02  0.338475057901006E+01  0.468205644192516E-01
     0.394999999999999E+01  0.294630718454821E+00  0.416085875318594E-02  0.339340244662566E+01  0.479225939072951E-01
     0.399999999999999E+01  0.293861434747533E+00  0.423690053878754E-02  0.340225713766922E+01  0.490538171913200E-01
     0.404999999999999E+01  0.293078151649410E+00  0.431418910311954E-02  0.341132000119920E+01  0.502155465823750E-01
     0.409999999999999E+01  0.292280640194460E+00  0.439277321577593E-02  0.342059662421742E+01  0.514091703878808E-01
     0.414999999999999E+01  0.291468662553281E+00  0.447270422302233E-02  0.343009284522418E+01  0.526361586175267E-01
     0.419999999999999E+01  0.290641971572761E+00  0.455403623541774E-02  0.343981476876784E+01  0.538980692132147E-01
     0.424999999999999E+01  0.289800310283078E+00  0.463682633250577E-02  0.344976878107689E+01  0.551965548605822E-01
     0.429999999999999E+01  0.288943411369155E+00  0.472113478645581E-02  0.345996156687209E+01  0.565333704470264E-01
     0.434999999999999E+01  0.288070996603338E+00  0.480702530677889E-02  0.347040012746730E+01  0.579103812396457E-01
     0.439999999999999E+01  0.287182776235840E+00  0.489456530852196E-02  0.348109180027841E+01  0.593295718662134E-01
     0.444999999999999E+01  0.286278448338995E+00  0.498382620666851E-02  0.349204427987389E+01  0.607930561935764E-01
     0.449999999999999E+01  0.285357698101039E+00  0.507488373984444E-02  0.350326564071431E+01  0.623030882107892E-01
     0.454999999999999E+01  0.284420197064586E+00  0.516781832686096E-02  0.351476436174602E+01  0.638620740393632E-01
     0.459999999999999E+01  0.283465602304428E+00  0.526271546012624E-02  0.352654935303232E+01  0.654725852104259E-01
     0.464999999999999E+01  0.282493555538678E+00  0.535966614054050E-02  0.353862998462746E+01  0.671373733689029E-01
     0.469999999999999E+01  0.281503682166613E+00  0.545876735916886E-02  0.355101611792230E+01  0.688593865884990E-01
     0.474999999999999E+01  0.280495590225679E+00  0.556012263178244E-02  0.356371813971929E+01  0.706417875090462E-01
     0.479999999999999E+01  0.279468869259301E+00  0.566384259329090E-02  0.357674699932501E+01  0.724879735402879E-01
     0.484999999999999E+01  0.278423089086099E+00  0.577004566018941E-02  0.359011424898415E+01  0.744015994145128E-01
     0.489999999999999E+01  0.277357798459866E+00  0.587885877043961E-02  0.360383208802070E+01  0.763866024157164E-01
     0.494999999999999E+01  0.276272523608411E+00  0.599041821174123E-02  0.361791341109798E+01  0.784472306665691E-01
     0.499999999999999E+01  0.275166766637752E+00  0.610487055097727E-02  0.363237186106305E+01  0.805880749182010E-01
