#        \hbar \omega(eV)           Re(1/eps)            -Im(1/eps)               Re(eps)                Im(eps)
     0.000000000000000E+00  0.794224617753769E+00  -.310390550700125E-10  0.125908965505024E+01  -.492064238095721E-10
     0.500000000000000E-01  0.794224114262379E+00  0.548427257583844E-05  0.125909045317901E+01  0.869426540804886E-05
     0.100000000000000E+00  0.794222603751195E+00  0.109689801721782E-04  0.125909284763007E+01  0.173892865996950E-04
     0.150000000000000E+00  0.794220086109174E+00  0.164544958450457E-04  0.125909683859760E+01  0.260857211515630E-04
     0.200000000000000E+00  0.794216561151210E+00  0.219412239173891E-04  0.125910242640534E+01  0.347842762591647E-04
     0.250000000000000E+00  0.794212028618082E+00  0.274295690541476E-04  0.125910961150663E+01  0.434856597370550E-04
     0.300000000000000E+00  0.794206488176383E+00  0.329199363766046E-04  0.125911839448459E+01  0.521905802258312E-04
     0.350000000000000E+00  0.794199939418419E+00  0.384127315770476E-04  0.125912877605224E+01  0.608997473996902E-04
     0.400000000000000E+00  0.794192381862105E+00  0.439083610338109E-04  0.125914075705274E+01  0.696138721746856E-04
     0.450000000000000E+00  0.794183814950820E+00  0.494072319267804E-04  0.125915433845964E+01  0.783336669178275E-04
     0.500000000000000E+00  0.794174238053256E+00  0.549097523534374E-04  0.125916952137713E+01  0.870598456571668E-04
     0.550000000000000E+00  0.794163650463238E+00  0.604163314455201E-04  0.125918630704040E+01  0.957931242930074E-04
     0.600000000000000E+00  0.794152051399522E+00  0.659273794863850E-04  0.125920469681599E+01  0.104534220810396E-03
     0.650000000000000E+00  0.794139440005579E+00  0.714433080291470E-04  0.125922469220217E+01  0.113283855493029E-03
     0.700000000000000E+00  0.794125815349349E+00  0.769645300156779E-04  0.125924629482939E+01  0.122042751138738E-03
     0.750000000000000E+00  0.794111176422975E+00  0.824914598965525E-04  0.125926950646079E+01  0.130811633276688E-03
     0.800000000000000E+00  0.794095522142522E+00  0.880245137520177E-04  0.125929432899267E+01  0.139591230386460E-03
     0.850000000000000E+00  0.794078851347665E+00  0.935641094140775E-04  0.125932076445507E+01  0.148382274119156E-03
     0.900000000000000E+00  0.794061162801357E+00  0.991106665897767E-04  0.125934881501238E+01  0.157185499520704E-03
     0.950000000000000E+00  0.794042455189478E+00  0.104664606985771E-03  0.125937848296396E+01  0.166001645257501E-03
     0.100000000000000E+01  0.794022727120459E+00  0.110226354434275E-03  0.125940977074484E+01  0.174831453844582E-03
     0.105000000000000E+01  0.794001977124878E+00  0.115796335020484E-03  0.125944268092642E+01  0.183675671876463E-03
     0.110000000000000E+01  0.793980203655042E+00  0.121374977211550E-03  0.125947721621726E+01  0.192535050260840E-03
     0.115000000000000E+01  0.793957405084539E+00  0.126962711987225E-03  0.125951337946388E+01  0.201410344455319E-03
     0.120000000000000E+01  0.793933579707767E+00  0.132559972972257E-03  0.125955117365160E+01  0.210302314707344E-03
     0.125000000000000E+01  0.793908725739438E+00  0.138167196570646E-03  0.125959060190545E+01  0.219211726297523E-03
     0.130000000000000E+01  0.793882841314062E+00  0.143784822101850E-03  0.125963166749113E+01  0.228139349786524E-03
     0.135000000000000E+01  0.793855924485399E+00  0.149413291939072E-03  0.125967437381592E+01  0.237085961265743E-03
     0.140000000000000E+01  0.793827973225889E+00  0.155053051649706E-03  0.125971872442983E+01  0.246052342611942E-03
     0.145000000000000E+01  0.793798985426062E+00  0.160704550138074E-03  0.125976472302656E+01  0.255039281746041E-03
     0.150000000000000E+01  0.793768958893908E+00  0.166368239790563E-03  0.125981237344471E+01  0.264047572896312E-03
     0.155000000000000E+01  0.793737891354231E+00  0.172044576623269E-03  0.125986167966892E+01  0.273078016866134E-03
     0.160000000000000E+01  0.793705780447977E+00  0.177734020432290E-03  0.125991264583110E+01  0.282131421306591E-03
     0.165000000000000E+01  0.793672623731528E+00  0.183437034946770E-03  0.125996527621170E+01  0.291208600994083E-03
     0.170000000000000E+01  0.793638418675967E+00  0.189154087984841E-03  0.126001957524104E+01  0.300310378113230E-03
     0.175000000000000E+01  0.793603162666324E+00  0.194885651612584E-03  0.126007554750070E+01  0.309437582545282E-03
     0.180000000000000E+01  0.793566853000782E+00  0.200632202306147E-03  0.126013319772492E+01  0.318591052162292E-03
     0.185000000000000E+01  0.793529486889858E+00  0.206394221117173E-03  0.126019253080211E+01  0.327771633127328E-03
     0.190000000000000E+01  0.793491061455557E+00  0.212172193841664E-03  0.126025355177638E+01  0.336980180200959E-03
     0.195000000000000E+01  0.793451573730487E+00  0.217966611192450E-03  0.126031626584914E+01  0.346217557054302E-03
     0.200000000000000E+01  0.793411020656945E+00  0.223777968975420E-03  0.126038067838076E+01  0.355484636588957E-03
     0.205000000000000E+01  0.793369399085980E+00  0.229606768269650E-03  0.126044679489225E+01  0.364782301264034E-03
     0.210000000000000E+01  0.793326705776406E+00  0.235453515611637E-03  0.126051462106708E+01  0.374111443430677E-03
     0.215000000000000E+01  0.793282937393794E+00  0.241318723183786E-03  0.126058416275300E+01  0.383472965674346E-03
     0.220000000000000E+01  0.793238090509425E+00  0.247202909007328E-03  0.126065542596389E+01  0.392867781165185E-03
     0.225000000000000E+01  0.793192161599207E+00  0.253106597139879E-03  0.126072841688180E+01  0.402296814016851E-03
     0.230000000000000E+01  0.793145147042556E+00  0.259030317877810E-03  0.126080314185893E+01  0.411760999654124E-03
     0.235000000000000E+01  0.793097043121243E+00  0.264974607963648E-03  0.126087960741972E+01  0.421261285189692E-03
     0.240000000000000E+01  0.793047846018193E+00  0.270940010798705E-03  0.126095782026306E+01  0.430798629810473E-03
     0.245000000000000E+01  0.792997551816260E+00  0.276927076661171E-03  0.126103778726446E+01  0.440374005173895E-03
     0.250000000000000E+01  0.792946156496948E+00  0.282936362929870E-03  0.126111951547844E+01  0.449988395814518E-03
     0.255000000000000E+01  0.792893655939096E+00  0.288968434313944E-03  0.126120301214083E+01  0.459642799561457E-03
     0.260000000000000E+01  0.792840045917525E+00  0.295023863088698E-03  0.126128828467129E+01  0.469338227967045E-03
     0.265000000000000E+01  0.792785322101636E+00  0.301103229337861E-03  0.126137534067584E+01  0.479075706747190E-03
     0.270000000000000E+01  0.792729480053960E+00  0.307207121202530E-03  0.126146418794947E+01  0.488856276233934E-03
     0.275000000000000E+01  0.792672515228675E+00  0.313336135137086E-03  0.126155483447882E+01  0.498680991840703E-03
     0.280000000000000E+01  0.792614422970062E+00  0.319490876172358E-03  0.126164728844505E+01  0.508550924540790E-03
     0.285000000000000E+01  0.792555198510922E+00  0.325671958186348E-03  0.126174155822663E+01  0.518467161359609E-03
     0.290000000000000E+01  0.792494836970935E+00  0.331880004182827E-03  0.126183765240234E+01  0.528430805881323E-03
     0.295000000000000E+01  0.792433333354977E+00  0.338115646578141E-03  0.126193557975437E+01  0.538442978770400E-03
     0.300000000000000E+01  0.792370682551378E+00  0.344379527496556E-03  0.126203534927143E+01  0.548504818308777E-03
     0.305000000000000E+01  0.792306879330126E+00  0.350672299074520E-03  0.126213697015202E+01  0.558617480949249E-03
     0.310000000000000E+01  0.792241918341015E+00  0.356994623774214E-03  0.126224045180779E+01  0.568782141885798E-03
     0.315000000000000E+01  0.792175794111738E+00  0.363347174706771E-03  0.126234580386703E+01  0.578999995641545E-03
     0.320000000000000E+01  0.792108501045919E+00  0.369730635965598E-03  0.126245303617821E+01  0.589272256675115E-03
     0.325000000000000E+01  0.792040033421081E+00  0.376145702970223E-03  0.126256215881368E+01  0.599600160006169E-03
     0.330000000000000E+01  0.791970385386555E+00  0.382593082821101E-03  0.126267318207344E+01  0.609984961860937E-03
     0.335000000000000E+01  0.791899550961319E+00  0.389073494665892E-03  0.126278611648913E+01  0.620427940338606E-03
     0.340000000000000E+01  0.791827524031775E+00  0.395587670077660E-03  0.126290097282800E+01  0.630930396099481E-03
     0.345000000000000E+01  0.791754298349451E+00  0.402136353445556E-03  0.126301776209710E+01  0.641493653075847E-03
     0.350000000000000E+01  0.791679867528635E+00  0.408720302378489E-03  0.126313649554759E+01  0.652119059206520E-03
     0.355000000000000E+01  0.791604225043933E+00  0.415340288122395E-03  0.126325718467918E+01  0.662807987196146E-03
     0.360000000000000E+01  0.791527364227748E+00  0.421997095991671E-03  0.126337984124467E+01  0.673561835300320E-03
     0.365000000000000E+01  0.791449278267684E+00  0.428691525815424E-03  0.126350447725471E+01  0.684382028137679E-03
     0.370000000000000E+01  0.791369960203865E+00  0.435424392399190E-03  0.126363110498264E+01  0.695270017530157E-03
     0.375000000000000E+01  0.791289402926171E+00  0.442196526002809E-03  0.126375973696952E+01  0.706227283372689E-03
     0.379999999999999E+01  0.791207599171380E+00  0.449008772835208E-03  0.126389038602934E+01  0.717255334533672E-03
     0.384999999999999E+01  0.791124541520229E+00  0.455861995566828E-03  0.126402306525431E+01  0.728355709787566E-03
     0.390000000000000E+01  0.791040222394374E+00  0.462757073860529E-03  0.126415778802044E+01  0.739529978781140E-03
     0.394999999999999E+01  0.790954634053248E+00  0.469694904921812E-03  0.126429456799321E+01  0.750779743034867E-03
     0.399999999999999E+01  0.790867768590833E+00  0.476676404069245E-03  0.126443341913345E+01  0.762106636981109E-03
     0.404999999999999E+01  0.790779617932306E+00  0.483702505326047E-03  0.126457435570343E+01  0.773512329040810E-03
     0.409999999999999E+01  0.790690173830599E+00  0.490774162033815E-03  0.126471739227311E+01  0.784998522740472E-03
     0.414999999999999E+01  0.790599427862824E+00  0.497892347489436E-03  0.126486254372665E+01  0.796566957871353E-03
     0.419999999999999E+01  0.790507371426598E+00  0.505058055606288E-03  0.126500982526907E+01  0.808219411692828E-03
     0.424999999999999E+01  0.790413995736235E+00  0.512272301600906E-03  0.126515925243318E+01  0.819957700182102E-03
     0.429999999999999E+01  0.790319291818822E+00  0.519536122706308E-03  0.126531084108672E+01  0.831783679332417E-03
     0.434999999999999E+01  0.790223250510152E+00  0.526850578913308E-03  0.126546460743971E+01  0.843699246502176E-03
     0.439999999999999E+01  0.790125862450531E+00  0.534216753741168E-03  0.126562056805215E+01  0.855706341817413E-03
     0.444999999999999E+01  0.790027118080437E+00  0.541635755039022E-03  0.126577873984183E+01  0.867806949630262E-03
     0.449999999999999E+01  0.789927007636035E+00  0.549108715819634E-03  0.126593914009253E+01  0.880003100036190E-03
     0.454999999999999E+01  0.789825521144535E+00  0.556636795127060E-03  0.126610178646245E+01  0.892296870452903E-03
     0.459999999999999E+01  0.789722648419399E+00  0.564221178939968E-03  0.126626669699291E+01  0.904690387264075E-03
     0.464999999999999E+01  0.789618379055367E+00  0.571863081112374E-03  0.126643389011740E+01  0.917185827531107E-03
     0.469999999999999E+01  0.789512702423327E+00  0.579563744353761E-03  0.126660338467093E+01  0.929785420776458E-03
     0.474999999999999E+01  0.789405607664996E+00  0.587324441250568E-03  0.126677519989966E+01  0.942491450842190E-03
     0.479999999999999E+01  0.789297083687408E+00  0.595146475331221E-03  0.126694935547093E+01  0.955306257827639E-03
     0.484999999999999E+01  0.789187119157223E+00  0.603031182176983E-03  0.126712587148365E+01  0.968232240110342E-03
     0.489999999999999E+01  0.789075702494814E+00  0.610979930581025E-03  0.126730476847899E+01  0.981271856454592E-03
     0.494999999999999E+01  0.788962821868151E+00  0.618994123758333E-03  0.126748606745155E+01  0.994427628212349E-03
     0.499999999999999E+01  0.788848465186466E+00  0.627075200609091E-03  0.126766978986085E+01  0.100770214162130E-02
