#        \hbar \omega(eV)           Re(1/eps)            -Im(1/eps)               Re(eps)                Im(eps)
     0.000000000000000E+00  0.546448664193896E+00  -.272990419751004E-10  0.182999806848310E+01  -.914215686839827E-10
     0.500000000000000E-01  0.546446514961430E+00  0.234178545163533E-04  0.183000526269995E+01  0.784245041970726E-04
     0.100000000000000E+00  0.546440067039418E+00  0.468381899077668E-04  0.183002684644056E+01  0.156861017593923E-03
     0.150000000000000E+00  0.546429319753952E+00  0.702634333333377E-04  0.183006282297552E+01  0.235321371876350E-03
     0.200000000000000E+00  0.546414271981578E+00  0.936960410170346E-04  0.183011319775750E+01  0.313817500814994E-03
     0.250000000000000E+00  0.546394922148905E+00  0.117138471833347E-03  0.183017797842358E+01  0.392361354187617E-03
     0.300000000000000E+00  0.546371268232032E+00  0.140593188194104E-03  0.183025717479870E+01  0.470964903137630E-03
     0.350000000000000E+00  0.546343307755821E+00  0.164062656938149E-03  0.183035079890008E+01  0.549640145552258E-03
     0.400000000000000E+00  0.546311037793017E+00  0.187549350224573E-03  0.183045886494248E+01  0.628399111465216E-03
     0.450000000000000E+00  0.546274454963191E+00  0.211055746430247E-03  0.183058138934465E+01  0.707253868489029E-03
     0.500000000000000E+00  0.546233555431523E+00  0.234584331052372E-03  0.183071839073659E+01  0.786216527281902E-03
     0.550000000000000E+00  0.546188334907427E+00  0.258137597616801E-03  0.183086988996794E+01  0.865299247054339E-03
     0.600000000000000E+00  0.546138788642998E+00  0.281718048592854E-03  0.183103591011730E+01  0.944514241120640E-03
     0.650000000000000E+00  0.546084911431303E+00  0.305328196315416E-03  0.183121647650260E+01  0.102387378250048E-02
     0.700000000000000E+00  0.546026697604498E+00  0.328970563915045E-03  0.183141161669246E+01  0.110339020957594E-02
     0.750000000000000E+00  0.545964141031768E+00  0.352647686256911E-03  0.183162136051866E+01  0.118307593180933E-02
     0.800000000000000E+00  0.545897235117114E+00  0.376362110889319E-03  0.183184574008954E+01  0.126294343552738E-02
     0.850000000000000E+00  0.545825972796941E+00  0.400116399002655E-03  0.183208478980457E+01  0.134300528977732E-02
     0.900000000000000E+00  0.545750346537496E+00  0.423913126399537E-03  0.183233854636994E+01  0.142327415226056E-02
     0.950000000000000E+00  0.545670348332106E+00  0.447754884477058E-03  0.183260704881522E+01  0.150376277535002E-02
     0.100000000000000E+01  0.545585969698250E+00  0.471644281221929E-03  0.183289033851118E+01  0.158448401219672E-02
     0.105000000000000E+01  0.545497201674446E+00  0.495583942219426E-03  0.183318845918868E+01  0.166545082293214E-02
     0.110000000000000E+01  0.545404034816944E+00  0.519576511677023E-03  0.183350145695872E+01  0.174667628097231E-02
     0.115000000000000E+01  0.545306459196249E+00  0.543624653463646E-03  0.183382938033361E+01  0.182817357943037E-02
     0.120000000000000E+01  0.545204464393434E+00  0.567731052165456E-03  0.183417228024938E+01  0.190995603764399E-02
     0.125000000000000E+01  0.545098039496267E+00  0.591898414159180E-03  0.183453021008938E+01  0.199203710782462E-02
     0.130000000000000E+01  0.544987173095148E+00  0.616129468703913E-03  0.183490322570899E+01  0.207443038183543E-02
     0.135000000000000E+01  0.544871853278837E+00  0.640426969052487E-03  0.183529138546174E+01  0.215714959810543E-02
     0.140000000000000E+01  0.544752067629974E+00  0.664793693583411E-03  0.183569475022658E+01  0.224020864868702E-02
     0.145000000000000E+01  0.544627803220409E+00  0.689232446954471E-03  0.183611338343649E+01  0.232362158646469E-02
     0.150000000000000E+01  0.544499046606297E+00  0.713746061279149E-03  0.183654735110842E+01  0.240740263252305E-02
     0.155000000000000E+01  0.544365783822991E+00  0.738337397326945E-03  0.183699672187456E+01  0.249156618368215E-02
     0.160000000000000E+01  0.544228000379714E+00  0.763009345748871E-03  0.183746156701502E+01  0.257612682020887E-02
     0.165000000000000E+01  0.544085681254001E+00  0.787764828329298E-03  0.183794196049191E+01  0.266109931371305E-02
     0.170000000000000E+01  0.543938810885913E+00  0.812606799265446E-03  0.183843797898488E+01  0.274649863523763E-02
     0.175000000000000E+01  0.543787373172013E+00  0.837538246475855E-03  0.183894970192813E+01  0.283233996355222E-02
     0.180000000000000E+01  0.543631351459108E+00  0.862562192939183E-03  0.183947721154899E+01  0.291863869366021E-02
     0.185000000000000E+01  0.543470728537739E+00  0.887681698064756E-03  0.184002059290800E+01  0.300541044552921E-02
     0.190000000000000E+01  0.543305486635420E+00  0.912899859096359E-03  0.184057993394065E+01  0.309267107305605E-02
     0.195000000000000E+01  0.543135607409616E+00  0.938219812550776E-03  0.184115532550075E+01  0.318043667327711E-02
     0.200000000000000E+01  0.542961071940467E+00  0.963644735692658E-03  0.184174686140549E+01  0.326872359583538E-02
     0.205000000000000E+01  0.542781860723224E+00  0.989177848047425E-03  0.184235463848223E+01  0.335754845271687E-02
     0.210000000000000E+01  0.542597953660422E+00  0.101482241295382E-02  0.184297875661712E+01  0.344692812826811E-02
     0.215000000000000E+01  0.542409330053763E+00  0.104058173915801E-02  0.184361931880552E+01  0.353687978950843E-02
     0.220000000000000E+01  0.542215968595692E+00  0.106645918245101E-02  0.184427643120436E+01  0.362742089675057E-02
     0.225000000000000E+01  0.542017847360696E+00  0.109245814735138E-02  0.184495020318639E+01  0.371856921454335E-02
     0.230000000000000E+01  0.541814943796272E+00  0.111858208883525E-02  0.184564074739654E+01  0.381034282295202E-02
     0.235000000000000E+01  0.541607234713589E+00  0.114483451411578E-02  0.184634817981026E+01  0.390276012919108E-02
     0.240000000000000E+01  0.541394696277815E+00  0.117121898447410E-02  0.184707261979406E+01  0.399583987962641E-02
     0.245000000000000E+01  0.541177303998114E+00  0.119773911714431E-02  0.184781419016823E+01  0.408960117216324E-02
     0.250000000000000E+01  0.540955032717289E+00  0.122439858725459E-02  0.184857301727187E+01  0.418406346903793E-02
     0.255000000000000E+01  0.540727856601070E+00  0.125120112982718E-02  0.184934923103022E+01  0.427924661003207E-02
     0.260000000000000E+01  0.540495749127040E+00  0.127815054183974E-02  0.185014296502450E+01  0.437517082612841E-02
     0.265000000000000E+01  0.540258683073168E+00  0.130525068435076E-02  0.185095435656419E+01  0.447185675362894E-02
     0.270000000000000E+01  0.540016630505966E+00  0.133250548469198E-02  0.185178354676196E+01  0.456932544875655E-02
     0.275000000000000E+01  0.539769562768229E+00  0.135991893873074E-02  0.185263068061124E+01  0.466759840276260E-02
     0.280000000000000E+01  0.539517450466369E+00  0.138749511320542E-02  0.185349590706662E+01  0.476669755756399E-02
     0.285000000000000E+01  0.539260263457312E+00  0.141523814813718E-02  0.185437937912710E+01  0.486664532193435E-02
     0.290000000000000E+01  0.538997970834952E+00  0.144315225932150E-02  0.185528125392232E+01  0.496746458827522E-02
     0.295000000000000E+01  0.538730540916155E+00  0.147124174090310E-02  0.185620169280186E+01  0.506917874999429E-02
     0.300000000000000E+01  0.538457941226269E+00  0.149951096803801E-02  0.185714086142782E+01  0.517181171951987E-02
     0.305000000000000E+01  0.538180138484170E+00  0.152796439964664E-02  0.185809892987055E+01  0.527538794698055E-02
     0.310000000000000E+01  0.537897098586779E+00  0.155660658126223E-02  0.185907607270804E+01  0.537993243958279E-02
     0.315000000000000E+01  0.537608786593066E+00  0.158544214797879E-02  0.186007246912865E+01  0.548547078171874E-02
     0.320000000000000E+01  0.537315166707512E+00  0.161447582750329E-02  0.186108830303770E+01  0.559202915584008E-02
     0.325000000000000E+01  0.537016202263000E+00  0.164371244331676E-02  0.186212376316783E+01  0.569963436413375E-02
     0.330000000000000E+01  0.536711855703134E+00  0.167315691794955E-02  0.186317904319336E+01  0.580831385103946E-02
     0.335000000000000E+01  0.536402088563955E+00  0.170281427637583E-02  0.186425434184878E+01  0.591809572664862E-02
     0.340000000000000E+01  0.536086861455018E+00  0.173268964953312E-02  0.186534986305158E+01  0.602900879102910E-02
     0.345000000000000E+01  0.535766134039847E+00  0.176278827797267E-02  0.186646581602949E+01  0.614108255951987E-02
     0.350000000000000E+01  0.535439865015691E+00  0.179311551564686E-02  0.186760241545244E+01  0.625434728904466E-02
     0.355000000000000E+01  0.535108012092603E+00  0.182367683384019E-02  0.186875988156932E+01  0.636883400549442E-02
     0.360000000000000E+01  0.534770531971788E+00  0.185447782525073E-02  0.186993844034973E+01  0.648457453223219E-02
     0.365000000000000E+01  0.534427380323198E+00  0.188552420822937E-02  0.187113832363112E+01  0.660160151977726E-02
     0.370000000000000E+01  0.534078511762353E+00  0.191682183118433E-02  0.187235976927118E+01  0.671994847672737E-02
     0.375000000000000E+01  0.533723879826349E+00  0.194837667715923E-02  0.187360302130607E+01  0.683964980198286E-02
     0.379999999999999E+01  0.533363436949028E+00  0.198019486859312E-02  0.187486833011449E+01  0.696074081833863E-02
     0.384999999999999E+01  0.532997134435260E+00  0.201228267227156E-02  0.187615595258798E+01  0.708325780751549E-02
     0.390000000000000E+01  0.532624922434334E+00  0.204464650447811E-02  0.187746615230759E+01  0.720723804670435E-02
     0.394999999999999E+01  0.532246749912392E+00  0.207729293635657E-02  0.187879919972730E+01  0.733271984670325E-02
     0.399999999999999E+01  0.531862564623872E+00  0.211022869949436E-02  0.188015537236442E+01  0.745974259173085E-02
     0.404999999999999E+01  0.531472313081934E+00  0.214346069173834E-02  0.188153495499736E+01  0.758834678100489E-02
     0.409999999999999E+01  0.531075940527819E+00  0.217699598325524E-02  0.188293823987093E+01  0.771857407218011E-02
     0.414999999999999E+01  0.530673390899084E+00  0.221084182284892E-02  0.188436552690969E+01  0.785046732674586E-02
     0.419999999999999E+01  0.530264606796686E+00  0.224500564454819E-02  0.188581712393964E+01  0.798407065748852E-02
     0.424999999999999E+01  0.529849529450855E+00  0.227949507447919E-02  0.188729334691850E+01  0.811942947813282E-02
     0.429999999999999E+01  0.529428098685703E+00  0.231431793803744E-02  0.188879452017527E+01  0.825659055528045E-02
     0.434999999999999E+01  0.529000252882515E+00  0.234948226737550E-02  0.189032097665918E+01  0.839560206277453E-02
     0.439999999999999E+01  0.528565928941669E+00  0.238499630922315E-02  0.189187305819863E+01  0.853651363862388E-02
     0.444999999999999E+01  0.528125062243126E+00  0.242086853305819E-02  0.189345111577063E+01  0.867937644463242E-02
     0.449999999999999E+01  0.527677586605405E+00  0.245710763964693E-02  0.189505550978107E+01  0.882424322888679E-02
     0.454999999999999E+01  0.527223434243009E+00  0.249372256997469E-02  0.189668661035653E+01  0.897116839126466E-02
     0.459999999999999E+01  0.526762535722204E+00  0.253072251458799E-02  0.189834479764806E+01  0.912020805213921E-02
     0.464999999999999E+01  0.526294819915091E+00  0.256811692337151E-02  0.190003046214744E+01  0.927142012446456E-02
     0.469999999999999E+01  0.525820213951878E+00  0.260591551578425E-02  0.190174400501683E+01  0.942486438944051E-02
     0.474999999999999E+01  0.525338643171281E+00  0.264412829158117E-02  0.190348583843212E+01  0.958060257596830E-02
     0.479999999999999E+01  0.524850031068966E+00  0.268276554204810E-02  0.190525638594083E+01  0.973869844412282E-02
     0.484999999999999E+01  0.524354299243925E+00  0.272183786177974E-02  0.190705608283534E+01  0.989921787288319E-02
     0.489999999999999E+01  0.523851367342700E+00  0.276135616103245E-02  0.190888537654215E+01  0.100622289523797E-01
     0.494999999999999E+01  0.523341153001347E+00  0.280133167868576E-02  0.191074472702791E+01  0.102278020809330E-01
     0.499999999999999E+01  0.522823571785018E+00  0.284177599584905E-02  0.191263460722333E+01  0.103960100671827E-01
