#        \hbar \omega(eV)           Re(1/eps)            -Im(1/eps)               Re(eps)                Im(eps)
     0.000000000000000E+00  0.490481349669030E+00  0.364967776308616E-09  0.203881350570167E+01  0.151708364035864E-08
     0.500000000000000E-01  0.490478737143058E+00  0.284689149890662E-04  0.203882435853550E+01  0.118339721878413E-03
     0.100000000000000E+00  0.490470899267911E+00  0.569407138518904E-04  0.203885691896260E+01  0.236698993927838E-03
     0.150000000000000E+00  0.490457835151577E+00  0.854190116967149E-04  0.203891119276058E+01  0.355100411372068E-03
     0.200000000000000E+00  0.490439543306978E+00  0.113907061251557E-03  0.203898718956206E+01  0.473565074150662E-03
     0.250000000000000E+00  0.490416021651384E+00  0.142408119128618E-03  0.203908492285964E+01  0.592114114930738E-03
     0.300000000000000E+00  0.490387267505580E+00  0.170925447124340E-03  0.203920441001287E+01  0.710768710069351E-03
     0.350000000000000E+00  0.490353277592808E+00  0.199462313524052E-03  0.203934567225718E+01  0.829550090621536E-03
     0.400000000000000E+00  0.490314048037465E+00  0.228021994412354E-03  0.203950873471484E+01  0.948479553405654E-03
     0.450000000000000E+00  0.490269574363559E+00  0.256607774990405E-03  0.203969362640790E+01  0.106757847213769E-02
     0.500000000000000E+00  0.490219851492937E+00  0.285222950901308E-03  0.203990038027321E+01  0.118686830864623E-02
     0.550000000000000E+00  0.490164873743251E+00  0.313870829564767E-03  0.204012903317950E+01  0.130637062418027E-02
     0.600000000000000E+00  0.490104634825696E+00  0.342554731522228E-03  0.204037962594644E+01  0.142610709082170E-02
     0.650000000000000E+00  0.490039127842502E+00  0.371277991793733E-03  0.204065220336585E+01  0.154609950301487E-02
     0.700000000000000E+00  0.489968345284161E+00  0.400043961247715E-03  0.204094681422505E+01  0.166636978922583E-02
     0.750000000000000E+00  0.489892279026426E+00  0.428856007985007E-03  0.204126351133224E+01  0.178694002374384E-02
     0.800000000000000E+00  0.489810920327036E+00  0.457717518738352E-03  0.204160235154413E+01  0.190783243863822E-02
     0.850000000000000E+00  0.489724259822205E+00  0.486631900288686E-03  0.204196339579570E+01  0.202906943588369E-02
     0.900000000000000E+00  0.489632287522836E+00  0.515602580899602E-03  0.204234670913221E+01  0.215067359966792E-02
     0.950000000000000E+00  0.489534992810467E+00  0.544633011771277E-03  0.204275236074352E+01  0.227266770889527E-02
     0.100000000000000E+01  0.489432364432983E+00  0.573726668515318E-03  0.204318042400049E+01  0.239507474990046E-02
     0.105000000000000E+01  0.489324390500013E+00  0.602887052651942E-03  0.204363097649401E+01  0.251791792938769E-02
     0.110000000000000E+01  0.489211058478089E+00  0.632117693130923E-03  0.204410410007619E+01  0.264122068760940E-02
     0.115000000000000E+01  0.489092355185505E+00  0.661422147877884E-03  0.204459988090396E+01  0.276500671180077E-02
     0.120000000000000E+01  0.488968266786899E+00  0.690804005367379E-03  0.204511840948533E+01  0.288929994988558E-02
     0.125000000000000E+01  0.488838778787553E+00  0.720266886224471E-03  0.204565978072790E+01  0.301412462447024E-02
     0.130000000000000E+01  0.488703876027382E+00  0.749814444856352E-03  0.204622409399017E+01  0.313950524714268E-02
     0.135000000000000E+01  0.488563542674644E+00  0.779450371115743E-03  0.204681145313530E+01  0.326546663309404E-02
     0.140000000000000E+01  0.488417762219325E+00  0.809178391997801E-03  0.204742196658769E+01  0.339203391608114E-02
     0.145000000000000E+01  0.488266517466229E+00  0.839002273372339E-03  0.204805574739219E+01  0.351923256374871E-02
     0.150000000000000E+01  0.488109790527736E+00  0.868925821753216E-03  0.204871291327621E+01  0.364708839333106E-02
     0.155000000000000E+01  0.487947562816250E+00  0.898952886106807E-03  0.204939358671469E+01  0.377562758775315E-02
     0.160000000000000E+01  0.487779815036291E+00  0.929087359701594E-03  0.205009789499798E+01  0.390487671215292E-02
     0.165000000000000E+01  0.487606527176282E+00  0.959333182000861E-03  0.205082597030284E+01  0.403486273084559E-02
     0.170000000000000E+01  0.487427678499951E+00  0.989694340600716E-03  0.205157794976648E+01  0.416561302475422E-02
     0.175000000000000E+01  0.487243247537400E+00  0.102017487321559E-02  0.205235397556385E+01  0.429715540932901E-02
     0.180000000000000E+01  0.487053212075804E+00  0.105077886971361E-02  0.205315419498822E+01  0.442951815298101E-02
     0.185000000000000E+01  0.486857549149729E+00  0.108151047420409E-02  0.205397876053510E+01  0.456272999605532E-02
     0.190000000000000E+01  0.486656235031083E+00  0.111237388717978E-02  0.205482782998973E+01  0.469682017037115E-02
     0.195000000000000E+01  0.486449245218644E+00  0.114337336771645E-02  0.205570156651807E+01  0.483181841935698E-02
     0.200000000000000E+01  0.486236554427216E+00  0.117451323573231E-02  0.205660013876161E+01  0.496775501880943E-02
     0.205000000000000E+01  0.486018136576346E+00  0.120579787431041E-02  0.205752372093583E+01  0.510466079830738E-02
     0.210000000000000E+01  0.485793964778623E+00  0.123723173208665E-02  0.205847249293277E+01  0.524256716331277E-02
     0.215000000000000E+01  0.485564011327538E+00  0.126881932570652E-02  0.205944664042758E+01  0.538150611799198E-02
     0.220000000000000E+01  0.485328247684889E+00  0.130056524235398E-02  0.206044635498922E+01  0.552151028879286E-02
     0.225000000000000E+01  0.485086644467723E+00  0.133247414235542E-02  0.206147183419560E+01  0.566261294881395E-02
     0.230000000000000E+01  0.484839171434794E+00  0.136455076186250E-02  0.206252328175317E+01  0.580484804300501E-02
     0.235000000000000E+01  0.484585797472538E+00  0.139679991561736E-02  0.206360090762106E+01  0.594825021423860E-02
     0.240000000000000E+01  0.484326490580528E+00  0.142922649980396E-02  0.206470492814010E+01  0.609285483029554E-02
     0.245000000000000E+01  0.484061217856405E+00  0.146183549498959E-02  0.206583556616685E+01  0.623869801180904E-02
     0.250000000000000E+01  0.483789945480279E+00  0.149463196916073E-02  0.206699305121262E+01  0.638581666121336E-02
     0.255000000000000E+01  0.483512638698557E+00  0.152762108085749E-02  0.206817761958792E+01  0.653424849274701E-02
     0.260000000000000E+01  0.483229261807203E+00  0.156080808241127E-02  0.206938951455242E+01  0.668403206356159E-02
     0.265000000000000E+01  0.482939778134400E+00  0.159419832329042E-02  0.207062898647060E+01  0.683520680599090E-02
     0.270000000000000E+01  0.482644150022594E+00  0.162779725355887E-02  0.207189629297336E+01  0.698781306103671E-02
     0.275000000000000E+01  0.482342338809908E+00  0.166161042745297E-02  0.207319169912573E+01  0.714189211313228E-02
     0.280000000000000E+01  0.482034304810886E+00  0.169564350708209E-02  0.207451547760108E+01  0.729748622624614E-02
     0.285000000000000E+01  0.481720007296571E+00  0.172990226625876E-02  0.207586790886186E+01  0.745463868139303E-02
     0.290000000000000E+01  0.481399404473865E+00  0.176439259446437E-02  0.207724928134725E+01  0.761339381562217E-02
     0.295000000000000E+01  0.481072453464168E+00  0.179912050095687E-02  0.207865989166810E+01  0.777379706255703E-02
     0.300000000000000E+01  0.480739110281256E+00  0.183409211902716E-02  0.208010004480911E+01  0.793589499456456E-02
     0.305000000000000E+01  0.480399329808381E+00  0.186931371041124E-02  0.208157005433895E+01  0.809973536663620E-02
     0.310000000000000E+01  0.480053065774551E+00  0.190479166986549E-02  0.208307024262836E+01  0.826536716206828E-02
     0.315000000000000E+01  0.479700270729980E+00  0.194053252991299E-02  0.208460094107660E+01  0.843284064003251E-02
     0.320000000000000E+01  0.479340896020653E+00  0.197654296576901E-02  0.208616249034678E+01  0.860220738513501E-02
     0.325000000000000E+01  0.478974891761996E+00  0.201282980045445E-02  0.208775524061011E+01  0.877352035906532E-02
     0.330000000000000E+01  0.478602206811592E+00  0.204940001010621E-02  0.208937955179981E+01  0.894683395444494E-02
     0.335000000000000E+01  0.478222788740941E+00  0.208626072949431E-02  0.209103579387478E+01  0.912220405098907E-02
     0.340000000000000E+01  0.477836583806183E+00  0.212341925775576E-02  0.209272434709365E+01  0.929968807410407E-02
     0.345000000000000E+01  0.477443536917781E+00  0.216088306435605E-02  0.209444560229959E+01  0.947934505604915E-02
     0.350000000000000E+01  0.477043591609102E+00  0.219865979528944E-02  0.209619996121632E+01  0.966123569979777E-02
     0.355000000000000E+01  0.476636690003867E+00  0.223675727953015E-02  0.209798783675584E+01  0.984542244574428E-02
     0.360000000000000E+01  0.476222772782399E+00  0.227518353574694E-02  0.209980965333842E+01  0.100319695414084E-01
     0.365000000000000E+01  0.475801779146655E+00  0.231394677929462E-02  0.210166584722538E+01  0.102209431143000E-01
     0.370000000000000E+01  0.475373646783962E+00  0.235305542949648E-02  0.210355686686525E+01  0.104124112481173E-01
     0.375000000000000E+01  0.474938311829419E+00  0.239251811723263E-02  0.210548317325383E+01  0.106064440624606E-01
     0.379999999999999E+01  0.474495708826905E+00  0.243234369285014E-02  0.210744524030898E+01  0.108031137962568E-01
     0.384999999999999E+01  0.474045770688633E+00  0.247254123441173E-02  0.210944355526062E+01  0.110024948951012E-01
     0.390000000000000E+01  0.473588428653187E+00  0.251312005630066E-02  0.211147861905682E+01  0.112046641027364E-01
     0.394999999999999E+01  0.473123612241994E+00  0.255408971820092E-02  0.211355094678651E+01  0.114097005569026E-01
     0.399999999999999E+01  0.472651249214123E+00  0.259546003447238E-02  0.211566106811995E+01  0.116176858898068E-01
     0.404999999999999E+01  0.472171265519380E+00  0.263724108394248E-02  0.211780952776746E+01  0.118287043334786E-01
     0.409999999999999E+01  0.471683585249607E+00  0.267944322013657E-02  0.211999688595748E+01  0.120428428302915E-01
     0.414999999999999E+01  0.471188130588094E+00  0.272207708197120E-02  0.212222371893491E+01  0.122601911489542E-01
     0.419999999999999E+01  0.470684821757043E+00  0.276515360493551E-02  0.212449061948060E+01  0.124808420062901E-01
     0.424999999999999E+01  0.470173576962963E+00  0.280868403278790E-02  0.212679819745322E+01  0.127048911951500E-01
     0.429999999999999E+01  0.469654312339944E+00  0.285267992979677E-02  0.212914708035447E+01  0.129324377188222E-01
     0.434999999999999E+01  0.469126941890664E+00  0.289715319355575E-02  0.213153791391889E+01  0.131635839323305E-01
     0.439999999999999E+01  0.468591377425065E+00  0.294211606840632E-02  0.213397136272951E+01  0.133984356910396E-01
     0.444999999999999E+01  0.468047528496566E+00  0.298758115950238E-02  0.213644811086064E+01  0.136371025070129E-01
     0.449999999999999E+01  0.467495302335687E+00  0.303356144755389E-02  0.213896886254931E+01  0.138796977136009E-01
     0.454999999999999E+01  0.466934603780994E+00  0.308007030428918E-02  0.214153434289668E+01  0.141263386387727E-01
     0.459999999999999E+01  0.466365335207200E+00  0.312712150867800E-02  0.214414529860111E+01  0.143771467877376E-01
     0.464999999999999E+01  0.465787396450296E+00  0.317472926396067E-02  0.214680249872469E+01  0.146322480354456E-01
     0.469999999999999E+01  0.465200684729579E+00  0.322290821553117E-02  0.214950673549476E+01  0.148917728295965E-01
     0.474999999999999E+01  0.464605094566398E+00  0.327167346972612E-02  0.215225882514249E+01  0.151558564048339E-01
     0.479999999999999E+01  0.464000517699465E+00  0.332104061357443E-02  0.215505960878059E+01  0.154246390088509E-01
     0.484999999999999E+01  0.463386842996565E+00  0.337102573556705E-02  0.215790995332219E+01  0.156982661411889E-01
     0.489999999999999E+01  0.462763956362463E+00  0.342164544750982E-02  0.216081075244317E+01  0.159768888055673E-01
     0.494999999999999E+01  0.462131740642821E+00  0.347291690752752E-02  0.216376292759058E+01  0.162606637766492E-01
     0.499999999999999E+01  0.461490075523926E+00  0.352485784429182E-02  0.216676742903947E+01  0.165497538822150E-01
